Data from emission_pump_1100nm_signal_1475nm_QEP037791__0__14-38-28-507.txt Node

Date: Thu Sep 11 14:38:28 BST 2025
User: EGI3ZEZ
Spectrometer: QEP03779
Trigger mode: 4
Integration Time (sec): 1.000000E-1
Scans to average: 1
Electric dark correction enabled: true
Nonlinearity correction enabled: false
Boxcar width: 0
XAxis mode: Wavelengths
Number of Pixels in Spectrum: 1044
>>>>>Begin Spectral Data<<<<<
197.204	18.12
197.993	1.12
198.782	-4.88
199.571	-3.88
200.359	1.12
201.148	-0.88
201.936	4.12
202.725	3.12
203.513	1.12
204.301	4.12
205.09	4.12
205.878	1.12
206.666	4.12
207.454	2.12
208.242	2.12
209.03	-1.88
209.818	3.12
210.605	1.12
211.393	4.12
212.181	2.12
212.968	2.12
213.756	-0.88
214.543	0.12
215.33	1.12
216.118	3.12
216.905	1.12
217.692	-0.88
218.479	4.12
219.266	8.12
220.053	5.12
220.84	0.12
221.627	3.12
222.413	2.12
223.2	2.12
223.987	1.12
224.773	1.12
225.56	5.12
226.346	6.12
227.132	3.12
227.918	6.12
228.705	3.12
229.491	4.12
230.277	2.12
231.063	5.12
231.849	2.12
232.635	0.12
233.42	6.12
234.206	0.12
234.992	-0.88
235.777	5.12
236.563	4.12
237.348	4.12
238.134	4.12
238.919	2.12
239.704	1.12
240.489	2.12
241.274	3.12
242.059	6.12
242.844	6.12
243.629	0.12
244.414	-1.88
245.199	3.12
245.983	6.12
246.768	5.12
247.553	3.12
248.337	2.12
249.121	1.12
249.906	4.12
250.69	1.12
251.474	3.12
252.258	-0.88
253.042	5.12
253.826	2.12
254.61	1.12
255.394	2.12
256.178	1.12
256.962	4.12
257.745	3.12
258.529	1.12
259.313	4.12
260.096	3.12
260.879	2.12
261.663	6.12
262.446	1.12
263.229	2.12
264.012	1.12
264.795	3.12
265.578	2.12
266.361	3.12
267.144	6.12
267.927	0.12
268.709	7.12
269.492	3.12
270.275	2.12
271.057	3.12
271.839	0.12
272.622	5.12
273.404	4.12
274.186	-0.88
274.969	3.12
275.751	4.12
276.533	0.12
277.315	0.12
278.096	7.12
278.878	0.12
279.66	3.12
280.442	5.12
281.223	2.12
282.005	4.12
282.786	1.12
283.568	1.12
284.349	3.12
285.13	3.12
285.911	2.12
286.693	1.12
287.474	3.12
288.255	8.12
289.035	-1.88
289.816	2.12
290.597	3.12
291.378	2.12
292.158	1.12
292.939	5.12
293.72	2.12
294.5	5.12
295.28	3.12
296.061	5.12
296.841	3.12
297.621	3.12
298.401	2.12
299.181	3.12
299.961	4.12
300.741	4.12
301.521	4.12
302.301	2.12
303.08	5.12
303.86	2.12
304.639	5.12
305.419	0.12
306.198	4.12
306.978	4.12
307.757	0.12
308.536	2.12
309.315	5.12
310.094	1.12
310.873	1.12
311.652	5.12
312.431	2.12
313.21	4.12
313.988	2.12
314.767	5.12
315.546	5.12
316.324	2.12
317.103	0.12
317.881	3.12
318.659	0.12
319.438	6.12
320.216	2.12
320.994	4.12
321.772	4.12
322.55	6.12
323.328	6.12
324.106	6.12
324.883	1.12
325.661	1.12
326.439	2.12
327.216	0.12
327.994	3.12
328.771	2.12
329.548	2.12
330.326	1.12
331.103	7.12
331.88	0.12
332.657	5.12
333.434	3.12
334.211	3.12
334.988	0.12
335.765	0.12
336.541	1.12
337.318	6.12
338.094	3.12
338.871	0.12
339.647	5.12
340.424	7.12
341.2	6.12
341.976	-2.88
342.753	1.12
343.529	5.12
344.305	2.12
345.081	3.12
345.856	1.12
346.632	3.12
347.408	3.12
348.184	2.12
348.959	2.12
349.735	5.12
350.51	0.12
351.286	3.12
352.061	3.12
352.836	2.12
353.612	2.12
354.387	5.12
355.162	5.12
355.937	-1.88
356.712	0.12
357.487	5.12
358.261	4.12
359.036	4.12
359.811	3.12
360.585	8.12
361.36	1.12
362.134	2.12
362.909	5.12
363.683	3.12
364.457	5.12
365.231	2.12
366.005	6.12
366.779	2.12
367.553	8.12
368.327	3.12
369.101	4.12
369.875	5.12
370.648	3.12
371.422	2.12
372.196	2.12
372.969	6.12
373.742	1.12
374.516	3.12
375.289	4.12
376.062	-1.88
376.835	3.12
377.608	5.12
378.381	6.12
379.154	0.12
379.927	6.12
380.7	0.12
381.473	-0.88
382.245	7.12
383.018	2.12
383.79	5.12
384.563	1.12
385.335	1.12
386.107	3.12
386.88	6.12
387.652	3.12
388.424	5.12
389.196	1.12
389.968	5.12
390.74	3.12
391.511	3.12
392.283	4.12
393.055	2.12
393.826	1.12
394.598	3.12
395.369	1.12
396.141	4.12
396.912	-1.88
397.683	2.12
398.455	3.12
399.226	1.12
399.997	5.12
400.768	5.12
401.539	1.12
402.309	1.12
403.08	4.12
403.851	6.12
404.621	6.12
405.392	6.12
406.162	4.12
406.933	1.12
407.703	2.12
408.474	4.12
409.244	0.12
410.014	2.12
410.784	2.12
411.554	3.12
412.324	0.12
413.094	2.12
413.863	-0.88
414.633	7.12
415.403	3.12
416.172	4.12
416.942	-0.88
417.711	1.12
418.481	1.12
419.25	-1.88
420.019	7.12
420.788	7.12
421.558	1.12
422.327	2.12
423.095	1.12
423.864	5.12
424.633	3.12
425.402	3.12
426.171	5.12
426.939	7.12
427.708	2.12
428.476	4.12
429.245	3.12
430.013	1.12
430.781	3.12
431.549	4.12
432.317	0.12
433.085	3.12
433.853	6.12
434.621	1.12
435.389	4.12
436.157	4.12
436.925	2.12
437.692	4.12
438.46	1.12
439.227	1.12
439.995	2.12
440.762	3.12
441.529	2.12
442.297	2.12
443.064	4.12
443.831	4.12
444.598	2.12
445.365	2.12
446.132	5.12
446.898	2.12
447.665	2.12
448.432	6.12
449.198	2.12
449.965	6.12
450.731	4.12
451.498	4.12
452.264	5.12
453.03	5.12
453.796	4.12
454.562	7.12
455.328	4.12
456.094	8.12
456.86	4.12
457.626	1.12
458.392	2.12
459.157	6.12
459.923	3.12
460.689	6.12
461.454	1.12
462.219	3.12
462.985	2.12
463.75	3.12
464.515	3.12
465.28	3.12
466.045	5.12
466.81	4.12
467.575	2.12
468.34	1.12
469.105	6.12
469.869	0.12
470.634	1.12
471.399	2.12
472.163	3.12
472.927	2.12
473.692	5.12
474.456	4.12
475.22	0.12
475.984	1.12
476.748	2.12
477.512	4.12
478.276	4.12
479.04	1.12
479.804	7.12
480.568	3.12
481.331	3.12
482.095	1.12
482.858	1.12
483.622	5.12
484.385	6.12
485.148	4.12
485.912	3.12
486.675	9.12
487.438	2.12
488.201	5.12
488.964	5.12
489.727	4.12
490.489	2.12
491.252	8.12
492.015	4.12
492.777	6.12
493.54	10.12
494.302	9.12
495.065	11.12
495.827	6.12
496.589	10.12
497.351	9.12
498.114	8.12
498.876	10.12
499.637	6.12
500.399	10.12
501.161	7.12
501.923	3.12
502.685	10.12
503.446	9.12
504.208	9.12
504.969	12.12
505.731	6.12
506.492	9.12
507.253	11.12
508.014	12.12
508.775	8.12
509.536	10.12
510.297	13.12
511.058	11.12
511.819	10.12
512.58	9.12
513.341	12.12
514.101	11.12
514.862	14.12
515.622	16.12
516.383	18.12
517.143	12.12
517.903	21.12
518.663	15.12
519.423	19.12
520.184	18.12
520.944	22.12
521.703	21.12
522.463	23.12
523.223	28.12
523.983	26.12
524.742	28.12
525.502	33.12
526.261	31.12
527.021	34.12
527.78	36.12
528.539	43.12
529.299	43.12
530.058	40.12
530.817	43.12
531.576	46.12
532.335	56.12
533.094	55.12
533.852	53.12
534.611	58.12
535.37	63.12
536.128	57.12
536.887	62.12
537.645	63.12
538.404	74.12
539.162	93.12
539.92	100.12
540.678	146.12
541.436	307.12
542.194	470.12
542.952	684.12
543.71	1962.12
544.468	3735.12
545.226	3499.12
545.983	4413.12
546.741	10122.12
547.498	11625.12
548.256	7008.12
549.013	9916.12
549.77	15788.12
550.528	10863.12
551.285	4911.12
552.042	6305.12
552.799	6655.12
553.556	3140.12
554.313	1098.12
555.069	1049.12
555.826	750.12
556.583	268.12
557.339	103.12
558.096	79.12
558.852	44.12
559.609	36.12
560.365	27.12
561.121	19.12
561.877	23.12
562.634	15.12
563.39	17.12
564.146	9.12
564.901	13.12
565.657	8.12
566.413	12.12
567.169	8.12
567.924	13.12
568.68	10.12
569.435	7.12
570.191	9.12
570.946	12.12
571.701	12.12
572.456	13.12
573.211	12.12
573.966	11.12
574.721	16.12
575.476	13.12
576.231	15.12
576.986	17.12
577.741	21.12
578.495	13.12
579.25	18.12
580.004	21.12
580.759	13.12
581.513	21.12
582.267	21.12
583.021	23.12
583.775	22.12
584.529	24.12
585.283	20.12
586.037	23.12
586.791	28.12
587.545	19.12
588.299	25.12
589.052	26.12
589.806	30.12
590.559	30.12
591.313	28.12
592.066	30.12
592.819	30.12
593.572	36.12
594.325	29.12
595.078	34.12
595.831	37.12
596.584	31.12
597.337	44.12
598.09	42.12
598.843	44.12
599.595	51.12
600.348	46.12
601.1	53.12
601.853	65.12
602.605	62.12
603.357	71.12
604.109	77.12
604.862	82.12
605.614	96.12
606.366	94.12
607.117	102.12
607.869	112.12
608.621	120.12
609.373	123.12
610.124	136.12
610.876	149.12
611.627	156.12
612.379	170.12
613.13	164.12
613.881	181.12
614.633	196.12
615.384	214.12
616.135	212.12
616.886	229.12
617.637	242.12
618.387	275.12
619.138	444.12
619.889	780.12
620.639	1168.12
621.39	1358.12
622.141	1192.12
622.891	1741.12
623.641	5404.12
624.392	14457.12
625.142	26609.12
625.892	32908.12
626.642	27820.12
627.392	16166.12
628.142	12650.12
628.892	28001.12
629.641	53357.12
630.391	68967.12
631.141	62051.12
631.89	39283.12
632.64	17197.12
633.389	6738.12
634.138	7488.12
634.888	11880.12
635.637	13305.12
636.386	10670.12
637.135	6094.12
637.884	2558.12
638.633	809.12
639.382	430.12
640.131	488.12
640.879	483.12
641.628	334.12
642.376	177.12
643.125	85.12
643.873	50.12
644.622	38.12
645.37	34.12
646.118	25.12
646.866	28.12
647.614	26.12
648.362	19.12
649.11	16.12
649.858	18.12
650.606	12.12
651.353	13.12
652.101	12.12
652.849	13.12
653.596	12.12
654.343	13.12
655.091	14.12
655.838	7.12
656.585	9.12
657.332	11.12
658.079	7.12
658.826	7.12
659.573	11.12
660.32	6.12
661.067	10.12
661.814	6.12
662.56	9.12
663.307	8.12
664.053	7.12
664.8	4.12
665.546	5.12
666.292	8.12
667.038	6.12
667.785	9.12
668.531	6.12
669.277	7.12
670.022	3.12
670.768	6.12
671.514	8.12
672.26	9.12
673.005	3.12
673.751	5.12
674.496	6.12
675.242	4.12
675.987	4.12
676.732	6.12
677.478	3.12
678.223	6.12
678.968	6.12
679.713	4.12
680.458	8.12
681.202	9.12
681.947	4.12
682.692	8.12
683.436	5.12
684.181	7.12
684.925	9.12
685.67	4.12
686.414	10.12
687.158	5.12
687.903	8.12
688.647	4.12
689.391	8.12
690.135	8.12
690.879	7.12
691.622	10.12
692.366	6.12
693.11	6.12
693.853	9.12
694.597	13.12
695.34	9.12
696.084	8.12
696.827	8.12
697.57	15.12
698.313	15.12
699.057	10.12
699.8	16.12
700.543	12.12
701.285	20.12
702.028	11.12
702.771	17.12
703.514	19.12
704.256	19.12
704.999	18.12
705.741	19.12
706.484	20.12
707.226	19.12
707.968	16.12
708.71	16.12
709.452	21.12
710.194	22.12
710.936	23.12
711.678	25.12
712.42	25.12
713.162	27.12
713.903	29.12
714.645	30.12
715.387	35.12
716.128	38.12
716.869	40.12
717.611	53.12
718.352	49.12
719.093	54.12
719.834	64.12
720.575	84.12
721.316	86.12
722.057	95.12
722.798	101.12
723.538	108.12
724.279	100.12
725.02	129.12
725.76	203.12
726.501	346.12
727.241	611.12
727.981	1032.12
728.721	1616.12
729.462	2315.12
730.202	2959.12
730.942	3491.12
731.682	3653.12
732.421	3207.12
733.161	2429.12
733.901	1583.12
734.641	1178.12
735.38	1832.12
736.12	3999.12
736.859	7832.12
737.598	12257.12
738.338	16342.12
739.077	19148.12
739.816	19748.12
740.555	18560.12
741.294	16054.12
742.033	12119.12
742.772	8104.12
743.511	4930.12
744.249	2507.12
744.988	1103.12
745.726	502.12
746.465	386.12
747.203	517.12
747.942	668.12
748.68	760.12
749.418	787.12
750.156	716.12
750.894	599.12
751.632	477.12
752.37	338.12
753.108	231.12
753.846	150.12
754.583	92.12
755.321	56.12
756.059	39.12
756.796	22.12
757.533	16.12
758.271	14.12
759.008	10.12
759.745	10.12
760.482	7.12
761.219	11.12
761.956	6.12
762.693	9.12
763.43	7.12
764.167	7.12
764.903	7.12
765.64	9.12
766.377	6.12
767.113	8.12
767.849	8.12
768.586	3.12
769.322	7.12
770.058	9.12
770.794	8.12
771.53	3.12
772.266	5.12
773.002	7.12
773.738	4.12
774.474	9.12
775.209	7.12
775.945	6.12
776.68	9.12
777.416	8.12
778.151	4.12
778.886	5.12
779.622	3.12
780.357	8.12
781.092	4.12
781.827	8.12
782.562	6.12
783.297	5.12
784.031	3.12
784.766	6.12
785.501	9.12
786.235	7.12
786.97	4.12
787.704	5.12
788.439	7.12
789.173	6.12
789.907	9.12
790.641	9.12
791.375	2.12
792.109	7.12
792.843	7.12
793.577	12.12
794.311	8.12
795.044	6.12
795.778	7.12
796.512	10.12
797.245	3.12
797.978	3.12
798.712	8.12
799.445	4.12
800.178	6.12
800.911	7.12
801.644	9.12
802.377	10.12
803.11	7.12
803.843	7.12
804.576	8.12
805.308	5.12
806.041	10.12
806.774	8.12
807.506	6.12
808.238	7.12
808.971	9.12
809.703	9.12
810.435	7.12
811.167	8.12
811.899	15.12
812.631	14.12
813.363	9.12
814.095	12.12
814.827	12.12
815.558	12.12
816.29	9.12
817.021	14.12
817.753	15.12
818.484	16.12
819.215	11.12
819.947	10.12
820.678	9.12
821.409	17.12
822.14	16.12
822.871	16.12
823.602	9.12
824.332	16.12
825.063	16.12
825.794	15.12
826.524	10.12
827.255	16.12
827.985	16.12
828.716	12.12
829.446	19.12
830.176	12.12
830.906	11.12
831.636	15.12
832.366	12.12
833.096	13.12
833.826	12.12
834.556	10.12
835.285	16.12
836.015	17.12
836.744	15.12
837.474	21.12
838.203	17.12
838.933	18.12
839.662	17.12
840.391	14.12
841.12	14.12
841.849	13.12
842.578	14.12
843.307	18.12
844.036	13.12
844.764	12.12
845.493	18.12
846.222	18.12
846.95	15.12
847.679	18.12
848.407	14.12
849.135	15.12
849.864	17.12
850.592	14.12
851.32	19.12
852.048	16.12
852.776	17.12
853.504	13.12
854.231	16.12
854.959	14.12
855.687	18.12
856.414	17.12
857.142	14.12
857.869	15.12
858.596	16.12
859.324	13.12
860.051	16.12
860.778	15.12
861.505	13.12
862.232	14.12
862.959	12.12
863.686	11.12
864.413	13.12
865.139	14.12
865.866	20.12
866.592	14.12
867.319	16.12
868.045	17.12
868.772	19.12
869.498	13.12
870.224	19.12
870.95	11.12
871.676	16.12
872.402	13.12
873.128	12.12
873.854	18.12
874.579	17.12
875.305	21.12
876.031	15.12
876.756	10.12
877.482	17.12
878.207	16.12
878.932	14.12
879.657	16.12
880.383	15.12
881.108	20.12
881.833	17.12
882.557	13.12
883.282	13.12
884.007	20.12
884.732	14.12
885.456	20.12
886.181	17.12
886.905	17.12
887.63	16.12
888.354	14.12
889.078	17.12
889.803	13.12
890.527	16.12
891.251	15.12
891.975	14.12
892.699	16.12
893.422	12.12
894.146	18.12
894.87	15.12
895.593	18.12
896.317	14.12
897.04	15.12
897.764	15.12
898.487	13.12
899.21	15.12
899.933	15.12
900.656	13.12
901.38	15.12
902.102	16.12
902.825	15.12
903.548	15.12
904.271	14.12
904.993	9.12
905.716	10.12
906.438	15.12
907.161	13.12
907.883	15.12
908.605	12.12
909.328	13.12
910.05	18.12
910.772	19.12
911.494	14.12
912.216	14.12
912.938	14.12
913.659	15.12
914.381	17.12
915.103	16.12
915.824	11.12
916.546	18.12
917.267	15.12
917.988	19.12
918.709	13.12
919.431	18.12
920.152	16.12
920.873	12.12
921.594	12.12
922.315	19.12
923.035	17.12
923.756	13.12
924.477	14.12
925.197	20.12
925.918	16.12
926.638	18.12
927.359	21.12
928.079	13.12
928.799	17.12
929.519	15.12
930.239	13.12
930.959	15.12
931.679	15.12
932.399	16.12
933.119	15.12
933.838	15.12
934.558	17.12
935.277	16.12
935.997	12.12
936.716	14.12
937.436	17.12
938.155	17.12
938.874	13.12
939.593	17.12
940.312	12.12
941.031	15.12
941.75	22.12
942.469	12.12
943.187	16.12
943.906	19.12
944.625	18.12
945.343	19.12
946.062	17.12
946.78	19.12
947.498	18.12
948.216	16.12
948.935	16.12
949.653	18.12
950.371	13.12
951.089	17.12
951.806	19.12
952.524	14.12
953.242	18.12
953.959	14.12
954.677	13.12
955.394	20.12
956.112	17.12
956.829	18.12
957.546	13.12
958.263	14.12
958.981	17.12
959.698	12.12
960.415	16.12
961.131	18.12
961.848	21.12
962.565	15.12
963.282	20.12
963.998	17.12
964.715	18.12
965.431	18.12
966.147	17.12
966.864	14.12
967.58	14.12
968.296	16.12
969.012	20.12
969.728	19.12
970.444	17.12
971.16	18.12
971.876	18.12
972.591	18.12
973.307	15.12
974.022	15.12
974.738	15.12
975.453	19.12
976.169	13.12
976.884	17.12
977.599	21.12
978.314	11.12
979.029	17.12
979.744	-2.88
980.459	-3.88
981.174	-1.88
981.888	-1.88
