Data from emission_pump_1100nm_signal_1500nm_QEP037791__0__14-37-35-407.txt Node

Date: Thu Sep 11 14:37:35 BST 2025
User: EGI3ZEZ
Spectrometer: QEP03779
Trigger mode: 4
Integration Time (sec): 1.000000E-1
Scans to average: 1
Electric dark correction enabled: true
Nonlinearity correction enabled: false
Boxcar width: 0
XAxis mode: Wavelengths
Number of Pixels in Spectrum: 1044
>>>>>Begin Spectral Data<<<<<
197.204	16.12
197.993	-0.88
198.782	-1.88
199.571	-4.88
200.359	0.12
201.148	1.12
201.936	2.12
202.725	3.12
203.513	-1.88
204.301	0.12
205.09	3.12
205.878	-1.88
206.666	3.12
207.454	2.12
208.242	1.12
209.03	2.12
209.818	-0.88
210.605	0.12
211.393	7.12
212.181	1.12
212.968	-0.88
213.756	2.12
214.543	1.12
215.33	0.12
216.118	2.12
216.905	0.12
217.692	1.12
218.479	1.12
219.266	3.12
220.053	-0.88
220.84	1.12
221.627	1.12
222.413	6.12
223.2	1.12
223.987	-2.88
224.773	3.12
225.56	2.12
226.346	0.12
227.132	3.12
227.918	4.12
228.705	-1.88
229.491	-1.88
230.277	1.12
231.063	0.12
231.849	1.12
232.635	1.12
233.42	5.12
234.206	4.12
234.992	2.12
235.777	1.12
236.563	-1.88
237.348	2.12
238.134	4.12
238.919	3.12
239.704	1.12
240.489	3.12
241.274	0.12
242.059	3.12
242.844	1.12
243.629	2.12
244.414	2.12
245.199	6.12
245.983	-1.88
246.768	3.12
247.553	1.12
248.337	2.12
249.121	6.12
249.906	3.12
250.69	0.12
251.474	2.12
252.258	2.12
253.042	0.12
253.826	2.12
254.61	3.12
255.394	4.12
256.178	1.12
256.962	2.12
257.745	3.12
258.529	2.12
259.313	3.12
260.096	3.12
260.879	1.12
261.663	0.12
262.446	4.12
263.229	1.12
264.012	4.12
264.795	0.12
265.578	2.12
266.361	-2.88
267.144	3.12
267.927	3.12
268.709	5.12
269.492	1.12
270.275	4.12
271.057	3.12
271.839	-0.88
272.622	1.12
273.404	3.12
274.186	0.12
274.969	1.12
275.751	4.12
276.533	1.12
277.315	4.12
278.096	0.12
278.878	0.12
279.66	2.12
280.442	2.12
281.223	3.12
282.005	3.12
282.786	1.12
283.568	2.12
284.349	1.12
285.13	2.12
285.911	1.12
286.693	2.12
287.474	2.12
288.255	1.12
289.035	1.12
289.816	0.12
290.597	4.12
291.378	4.12
292.158	4.12
292.939	-0.88
293.72	2.12
294.5	4.12
295.28	2.12
296.061	5.12
296.841	4.12
297.621	2.12
298.401	2.12
299.181	0.12
299.961	-0.88
300.741	4.12
301.521	6.12
302.301	2.12
303.08	-0.88
303.86	6.12
304.639	-0.88
305.419	0.12
306.198	3.12
306.978	4.12
307.757	4.12
308.536	6.12
309.315	5.12
310.094	2.12
310.873	3.12
311.652	5.12
312.431	2.12
313.21	0.12
313.988	-0.88
314.767	2.12
315.546	2.12
316.324	5.12
317.103	-2.88
317.881	3.12
318.659	1.12
319.438	3.12
320.216	7.12
320.994	1.12
321.772	0.12
322.55	6.12
323.328	2.12
324.106	-2.88
324.883	6.12
325.661	2.12
326.439	-1.88
327.216	4.12
327.994	-1.88
328.771	-0.88
329.548	1.12
330.326	0.12
331.103	0.12
331.88	-1.88
332.657	3.12
333.434	4.12
334.211	1.12
334.988	3.12
335.765	-1.88
336.541	3.12
337.318	3.12
338.094	4.12
338.871	3.12
339.647	0.12
340.424	6.12
341.2	-0.88
341.976	8.12
342.753	-0.88
343.529	4.12
344.305	1.12
345.081	3.12
345.856	1.12
346.632	2.12
347.408	0.12
348.184	4.12
348.959	4.12
349.735	3.12
350.51	2.12
351.286	2.12
352.061	1.12
352.836	3.12
353.612	-0.88
354.387	2.12
355.162	4.12
355.937	-0.88
356.712	2.12
357.487	3.12
358.261	3.12
359.036	3.12
359.811	2.12
360.585	7.12
361.36	3.12
362.134	5.12
362.909	3.12
363.683	1.12
364.457	2.12
365.231	5.12
366.005	-1.88
366.779	2.12
367.553	1.12
368.327	1.12
369.101	1.12
369.875	2.12
370.648	2.12
371.422	1.12
372.196	5.12
372.969	0.12
373.742	3.12
374.516	2.12
375.289	-0.88
376.062	1.12
376.835	1.12
377.608	0.12
378.381	3.12
379.154	2.12
379.927	2.12
380.7	2.12
381.473	2.12
382.245	4.12
383.018	1.12
383.79	1.12
384.563	3.12
385.335	4.12
386.107	2.12
386.88	-1.88
387.652	3.12
388.424	2.12
389.196	5.12
389.968	3.12
390.74	1.12
391.511	2.12
392.283	3.12
393.055	0.12
393.826	2.12
394.598	5.12
395.369	2.12
396.141	-2.88
396.912	3.12
397.683	0.12
398.455	-0.88
399.226	3.12
399.997	0.12
400.768	3.12
401.539	0.12
402.309	2.12
403.08	2.12
403.851	1.12
404.621	0.12
405.392	4.12
406.162	1.12
406.933	5.12
407.703	5.12
408.474	0.12
409.244	6.12
410.014	2.12
410.784	2.12
411.554	2.12
412.324	1.12
413.094	0.12
413.863	0.12
414.633	1.12
415.403	2.12
416.172	2.12
416.942	2.12
417.711	4.12
418.481	2.12
419.25	1.12
420.019	3.12
420.788	2.12
421.558	3.12
422.327	1.12
423.095	-2.88
423.864	3.12
424.633	4.12
425.402	1.12
426.171	2.12
426.939	-2.88
427.708	3.12
428.476	2.12
429.245	5.12
430.013	2.12
430.781	-1.88
431.549	4.12
432.317	4.12
433.085	1.12
433.853	3.12
434.621	5.12
435.389	1.12
436.157	6.12
436.925	2.12
437.692	4.12
438.46	7.12
439.227	5.12
439.995	2.12
440.762	4.12
441.529	2.12
442.297	3.12
443.064	0.12
443.831	-0.88
444.598	4.12
445.365	1.12
446.132	2.12
446.898	4.12
447.665	4.12
448.432	4.12
449.198	3.12
449.965	0.12
450.731	1.12
451.498	-0.88
452.264	2.12
453.03	7.12
453.796	4.12
454.562	4.12
455.328	5.12
456.094	6.12
456.86	2.12
457.626	3.12
458.392	3.12
459.157	1.12
459.923	6.12
460.689	3.12
461.454	2.12
462.219	4.12
462.985	0.12
463.75	3.12
464.515	6.12
465.28	2.12
466.045	7.12
466.81	1.12
467.575	3.12
468.34	5.12
469.105	-0.88
469.869	3.12
470.634	7.12
471.399	1.12
472.163	2.12
472.927	-2.88
473.692	2.12
474.456	2.12
475.22	1.12
475.984	3.12
476.748	3.12
477.512	-0.88
478.276	5.12
479.04	1.12
479.804	2.12
480.568	4.12
481.331	2.12
482.095	9.12
482.858	4.12
483.622	2.12
484.385	5.12
485.148	4.12
485.912	4.12
486.675	5.12
487.438	7.12
488.201	7.12
488.964	4.12
489.727	5.12
490.489	2.12
491.252	4.12
492.015	5.12
492.777	4.12
493.54	12.12
494.302	7.12
495.065	10.12
495.827	7.12
496.589	7.12
497.351	10.12
498.114	6.12
498.876	7.12
499.637	5.12
500.399	11.12
501.161	6.12
501.923	8.12
502.685	5.12
503.446	10.12
504.208	6.12
504.969	12.12
505.731	14.12
506.492	7.12
507.253	8.12
508.014	9.12
508.775	9.12
509.536	9.12
510.297	11.12
511.058	11.12
511.819	10.12
512.58	14.12
513.341	13.12
514.101	12.12
514.862	14.12
515.622	16.12
516.383	14.12
517.143	14.12
517.903	18.12
518.663	12.12
519.423	12.12
520.184	15.12
520.944	23.12
521.703	20.12
522.463	25.12
523.223	28.12
523.983	26.12
524.742	28.12
525.502	35.12
526.261	31.12
527.021	34.12
527.78	41.12
528.539	38.12
529.299	38.12
530.058	48.12
530.817	51.12
531.576	48.12
532.335	52.12
533.094	55.12
533.852	56.12
534.611	61.12
535.37	60.12
536.128	51.12
536.887	62.12
537.645	66.12
538.404	71.12
539.162	83.12
539.92	97.12
540.678	146.12
541.436	289.12
542.194	457.12
542.952	668.12
543.71	1915.12
544.468	3661.12
545.226	3376.12
545.983	4339.12
546.741	10064.12
547.498	11593.12
548.256	7049.12
549.013	9914.12
549.77	15674.12
550.528	10909.12
551.285	4936.12
552.042	6357.12
552.799	6750.12
553.556	3176.12
554.313	1090.12
555.069	1048.12
555.826	768.12
556.583	275.12
557.339	104.12
558.096	74.12
558.852	46.12
559.609	31.12
560.365	27.12
561.121	26.12
561.877	18.12
562.634	20.12
563.39	19.12
564.146	13.12
564.901	17.12
565.657	13.12
566.413	14.12
567.169	13.12
567.924	10.12
568.68	10.12
569.435	7.12
570.191	8.12
570.946	11.12
571.701	8.12
572.456	10.12
573.211	13.12
573.966	5.12
574.721	13.12
575.476	10.12
576.231	12.12
576.986	9.12
577.741	11.12
578.495	12.12
579.25	11.12
580.004	13.12
580.759	16.12
581.513	19.12
582.267	21.12
583.021	19.12
583.775	22.12
584.529	19.12
585.283	23.12
586.037	21.12
586.791	26.12
587.545	19.12
588.299	23.12
589.052	26.12
589.806	26.12
590.559	23.12
591.313	28.12
592.066	24.12
592.819	31.12
593.572	31.12
594.325	29.12
595.078	29.12
595.831	37.12
596.584	38.12
597.337	34.12
598.09	41.12
598.843	33.12
599.595	37.12
600.348	41.12
601.1	37.12
601.853	44.12
602.605	49.12
603.357	46.12
604.109	57.12
604.862	59.12
605.614	66.12
606.366	75.12
607.117	76.12
607.869	86.12
608.621	89.12
609.373	95.12
610.124	99.12
610.876	122.12
611.627	121.12
612.379	129.12
613.13	149.12
613.881	155.12
614.633	169.12
615.384	166.12
616.135	183.12
616.886	189.12
617.637	202.12
618.387	213.12
619.138	225.12
619.889	236.12
620.639	251.12
621.39	271.12
622.141	283.12
622.891	335.12
623.641	559.12
624.392	1108.12
625.142	1843.12
625.892	2273.12
626.642	2141.12
627.392	2141.12
628.142	5433.12
628.892	16140.12
629.641	33619.12
630.391	49095.12
631.141	50054.12
631.89	34692.12
632.64	17279.12
633.389	16697.12
634.138	36860.12
634.888	60893.12
635.637	69342.12
636.386	57153.12
637.135	33474.12
637.884	13992.12
638.633	5035.12
639.382	4833.12
640.131	7294.12
640.879	8022.12
641.628	6213.12
642.376	3445.12
643.125	1428.12
643.873	459.12
644.622	204.12
645.37	181.12
646.118	171.12
646.866	140.12
647.614	83.12
648.362	47.12
649.11	38.12
649.858	30.12
650.606	27.12
651.353	25.12
652.101	22.12
652.849	19.12
653.596	20.12
654.343	17.12
655.091	18.12
655.838	16.12
656.585	13.12
657.332	10.12
658.079	11.12
658.826	16.12
659.573	12.12
660.32	12.12
661.067	7.12
661.814	8.12
662.56	9.12
663.307	10.12
664.053	8.12
664.8	10.12
665.546	6.12
666.292	12.12
667.038	7.12
667.785	6.12
668.531	5.12
669.277	7.12
670.022	6.12
670.768	5.12
671.514	9.12
672.26	7.12
673.005	7.12
673.751	1.12
674.496	9.12
675.242	3.12
675.987	6.12
676.732	5.12
677.478	6.12
678.223	3.12
678.968	3.12
679.713	4.12
680.458	5.12
681.202	5.12
681.947	7.12
682.692	5.12
683.436	7.12
684.181	0.12
684.925	5.12
685.67	8.12
686.414	5.12
687.158	4.12
687.903	3.12
688.647	6.12
689.391	6.12
690.135	4.12
690.879	2.12
691.622	6.12
692.366	1.12
693.11	9.12
693.853	7.12
694.597	4.12
695.34	4.12
696.084	5.12
696.827	7.12
697.57	5.12
698.313	4.12
699.057	6.12
699.8	6.12
700.543	9.12
701.285	5.12
702.028	3.12
702.771	7.12
703.514	5.12
704.256	6.12
704.999	13.12
705.741	10.12
706.484	6.12
707.226	9.12
707.968	14.12
708.71	19.12
709.452	15.12
710.194	16.12
710.936	14.12
711.678	18.12
712.42	19.12
713.162	19.12
713.903	16.12
714.645	24.12
715.387	20.12
716.128	21.12
716.869	20.12
717.611	20.12
718.352	21.12
719.093	21.12
719.834	29.12
720.575	24.12
721.316	28.12
722.057	26.12
722.798	28.12
723.538	25.12
724.279	30.12
725.02	34.12
725.76	38.12
726.501	47.12
727.241	54.12
727.981	62.12
728.721	67.12
729.462	73.12
730.202	88.12
730.942	93.12
731.682	115.12
732.421	120.12
733.161	123.12
733.901	128.12
734.641	131.12
735.38	163.12
736.12	281.12
736.859	496.12
737.598	838.12
738.338	1351.12
739.077	1999.12
739.816	2813.12
740.555	3599.12
741.294	4299.12
742.033	4630.12
742.772	4381.12
743.511	3763.12
744.249	2674.12
744.988	1703.12
745.726	1400.12
746.465	2470.12
747.203	5303.12
747.942	9878.12
748.68	14909.12
749.418	20024.12
750.156	23269.12
750.894	23988.12
751.632	23296.12
752.37	20242.12
753.108	15707.12
753.846	11421.12
754.583	7392.12
755.321	4232.12
756.059	2100.12
756.796	940.12
757.533	444.12
758.271	340.12
759.008	393.12
759.745	489.12
760.482	568.12
761.219	573.12
761.956	549.12
762.693	464.12
763.43	366.12
764.167	289.12
764.903	207.12
765.64	142.12
766.377	88.12
767.113	64.12
767.849	41.12
768.586	22.12
769.322	21.12
770.058	19.12
770.794	19.12
771.53	17.12
772.266	9.12
773.002	11.12
773.738	8.12
774.474	14.12
775.209	16.12
775.945	8.12
776.68	9.12
777.416	8.12
778.151	11.12
778.886	10.12
779.622	9.12
780.357	11.12
781.092	13.12
781.827	3.12
782.562	8.12
783.297	6.12
784.031	6.12
784.766	10.12
785.501	4.12
786.235	8.12
786.97	5.12
787.704	5.12
788.439	3.12
789.173	8.12
789.907	6.12
790.641	9.12
791.375	13.12
792.109	10.12
792.843	8.12
793.577	7.12
794.311	7.12
795.044	9.12
795.778	11.12
796.512	7.12
797.245	8.12
797.978	8.12
798.712	4.12
799.445	10.12
800.178	7.12
800.911	11.12
801.644	7.12
802.377	9.12
803.11	8.12
803.843	8.12
804.576	6.12
805.308	12.12
806.041	7.12
806.774	14.12
807.506	15.12
808.238	7.12
808.971	5.12
809.703	10.12
810.435	11.12
811.167	11.12
811.899	12.12
812.631	11.12
813.363	11.12
814.095	9.12
814.827	11.12
815.558	10.12
816.29	12.12
817.021	11.12
817.753	9.12
818.484	14.12
819.215	15.12
819.947	14.12
820.678	16.12
821.409	15.12
822.14	16.12
822.871	12.12
823.602	13.12
824.332	15.12
825.063	14.12
825.794	17.12
826.524	14.12
827.255	17.12
827.985	14.12
828.716	14.12
829.446	23.12
830.176	20.12
830.906	16.12
831.636	17.12
832.366	17.12
833.096	15.12
833.826	16.12
834.556	19.12
835.285	18.12
836.015	15.12
836.744	19.12
837.474	23.12
838.203	20.12
838.933	22.12
839.662	20.12
840.391	18.12
841.12	18.12
841.849	18.12
842.578	21.12
843.307	23.12
844.036	17.12
844.764	19.12
845.493	20.12
846.222	20.12
846.95	15.12
847.679	16.12
848.407	19.12
849.135	17.12
849.864	16.12
850.592	15.12
851.32	20.12
852.048	20.12
852.776	18.12
853.504	23.12
854.231	21.12
854.959	23.12
855.687	19.12
856.414	20.12
857.142	20.12
857.869	19.12
858.596	18.12
859.324	16.12
860.051	21.12
860.778	18.12
861.505	15.12
862.232	16.12
862.959	21.12
863.686	18.12
864.413	18.12
865.139	20.12
865.866	19.12
866.592	16.12
867.319	20.12
868.045	20.12
868.772	21.12
869.498	20.12
870.224	17.12
870.95	19.12
871.676	21.12
872.402	24.12
873.128	19.12
873.854	23.12
874.579	19.12
875.305	21.12
876.031	20.12
876.756	15.12
877.482	20.12
878.207	19.12
878.932	23.12
879.657	19.12
880.383	19.12
881.108	22.12
881.833	20.12
882.557	18.12
883.282	18.12
884.007	19.12
884.732	22.12
885.456	20.12
886.181	20.12
886.905	21.12
887.63	23.12
888.354	22.12
889.078	16.12
889.803	18.12
890.527	20.12
891.251	17.12
891.975	14.12
892.699	19.12
893.422	18.12
894.146	16.12
894.87	19.12
895.593	17.12
896.317	18.12
897.04	20.12
897.764	19.12
898.487	22.12
899.21	19.12
899.933	22.12
900.656	18.12
901.38	18.12
902.102	20.12
902.825	13.12
903.548	18.12
904.271	18.12
904.993	19.12
905.716	21.12
906.438	20.12
907.161	19.12
907.883	21.12
908.605	14.12
909.328	16.12
910.05	16.12
910.772	17.12
911.494	15.12
912.216	18.12
912.938	15.12
913.659	20.12
914.381	15.12
915.103	17.12
915.824	14.12
916.546	18.12
917.267	20.12
917.988	16.12
918.709	21.12
919.431	16.12
920.152	15.12
920.873	19.12
921.594	23.12
922.315	20.12
923.035	14.12
923.756	19.12
924.477	15.12
925.197	19.12
925.918	18.12
926.638	15.12
927.359	19.12
928.079	18.12
928.799	19.12
929.519	20.12
930.239	22.12
930.959	21.12
931.679	20.12
932.399	23.12
933.119	22.12
933.838	16.12
934.558	17.12
935.277	22.12
935.997	17.12
936.716	11.12
937.436	18.12
938.155	23.12
938.874	17.12
939.593	16.12
940.312	22.12
941.031	16.12
941.75	20.12
942.469	20.12
943.187	17.12
943.906	22.12
944.625	26.12
945.343	22.12
946.062	25.12
946.78	19.12
947.498	18.12
948.216	22.12
948.935	20.12
949.653	23.12
950.371	16.12
951.089	17.12
951.806	18.12
952.524	18.12
953.242	20.12
953.959	23.12
954.677	18.12
955.394	18.12
956.112	16.12
956.829	15.12
957.546	21.12
958.263	16.12
958.981	10.12
959.698	13.12
960.415	19.12
961.131	23.12
961.848	20.12
962.565	16.12
963.282	20.12
963.998	20.12
964.715	18.12
965.431	21.12
966.147	16.12
966.864	16.12
967.58	14.12
968.296	15.12
969.012	17.12
969.728	21.12
970.444	12.12
971.16	14.12
971.876	21.12
972.591	18.12
973.307	20.12
974.022	21.12
974.738	16.12
975.453	18.12
976.169	14.12
976.884	21.12
977.599	20.12
978.314	19.12
979.029	25.12
979.744	-1.88
980.459	-2.88
981.174	-1.88
981.888	-1.88
