Data from emission_pump_1100nm_signal_1675nm_QEP037791__0__14-46-37-716.txt Node

Date: Thu Sep 11 14:46:37 BST 2025
User: EGI3ZEZ
Spectrometer: QEP03779
Trigger mode: 4
Integration Time (sec): 1.000000E-1
Scans to average: 1
Electric dark correction enabled: true
Nonlinearity correction enabled: false
Boxcar width: 0
XAxis mode: Wavelengths
Number of Pixels in Spectrum: 1044
>>>>>Begin Spectral Data<<<<<
197.204	17.88
197.993	-1.12
198.782	-4.12
199.571	-5.12
200.359	0.88
201.148	2.88
201.936	-0.12
202.725	1.88
203.513	1.88
204.301	1.88
205.09	0.88
205.878	-2.12
206.666	-0.12
207.454	2.88
208.242	2.88
209.03	-0.12
209.818	2.88
210.605	0.88
211.393	0.88
212.181	-1.12
212.968	0.88
213.756	3.88
214.543	2.88
215.33	0.88
216.118	2.88
216.905	1.88
217.692	-0.12
218.479	-0.12
219.266	3.88
220.053	-2.12
220.84	-1.12
221.627	0.88
222.413	0.88
223.2	2.88
223.987	-0.12
224.773	-2.12
225.56	2.88
226.346	0.88
227.132	2.88
227.918	-0.12
228.705	1.88
229.491	-0.12
230.277	1.88
231.063	2.88
231.849	-0.12
232.635	3.88
233.42	2.88
234.206	2.88
234.992	-2.12
235.777	2.88
236.563	0.88
237.348	3.88
238.134	-0.12
238.919	2.88
239.704	6.88
240.489	3.88
241.274	0.88
242.059	3.88
242.844	6.88
243.629	3.88
244.414	-3.12
245.199	3.88
245.983	-2.12
246.768	-0.12
247.553	-1.12
248.337	1.88
249.121	1.88
249.906	1.88
250.69	0.88
251.474	-2.12
252.258	-3.12
253.042	3.88
253.826	4.88
254.61	2.88
255.394	4.88
256.178	2.88
256.962	2.88
257.745	1.88
258.529	-0.12
259.313	-0.12
260.096	3.88
260.879	4.88
261.663	2.88
262.446	2.88
263.229	-2.12
264.012	2.88
264.795	-0.12
265.578	0.88
266.361	4.88
267.144	0.88
267.927	2.88
268.709	4.88
269.492	2.88
270.275	0.88
271.057	4.88
271.839	0.88
272.622	2.88
273.404	2.88
274.186	-0.12
274.969	-6.12
275.751	2.88
276.533	2.88
277.315	5.88
278.096	1.88
278.878	1.88
279.66	2.88
280.442	4.88
281.223	1.88
282.005	-0.12
282.786	2.88
283.568	5.88
284.349	4.88
285.13	-0.12
285.911	1.88
286.693	0.88
287.474	2.88
288.255	2.88
289.035	0.88
289.816	3.88
290.597	5.88
291.378	1.88
292.158	-1.12
292.939	4.88
293.72	1.88
294.5	1.88
295.28	1.88
296.061	5.88
296.841	3.88
297.621	-1.12
298.401	4.88
299.181	5.88
299.961	1.88
300.741	3.88
301.521	3.88
302.301	1.88
303.08	1.88
303.86	0.88
304.639	5.88
305.419	5.88
306.198	0.88
306.978	0.88
307.757	1.88
308.536	-0.12
309.315	1.88
310.094	0.88
310.873	-0.12
311.652	-0.12
312.431	4.88
313.21	0.88
313.988	0.88
314.767	-0.12
315.546	1.88
316.324	2.88
317.103	0.88
317.881	1.88
318.659	2.88
319.438	0.88
320.216	1.88
320.994	1.88
321.772	-1.12
322.55	1.88
323.328	3.88
324.106	5.88
324.883	0.88
325.661	-2.12
326.439	2.88
327.216	0.88
327.994	2.88
328.771	0.88
329.548	4.88
330.326	-1.12
331.103	2.88
331.88	5.88
332.657	1.88
333.434	3.88
334.211	2.88
334.988	-0.12
335.765	1.88
336.541	6.88
337.318	4.88
338.094	3.88
338.871	3.88
339.647	-0.12
340.424	-0.12
341.2	2.88
341.976	1.88
342.753	4.88
343.529	0.88
344.305	1.88
345.081	1.88
345.856	0.88
346.632	1.88
347.408	1.88
348.184	-0.12
348.959	0.88
349.735	0.88
350.51	4.88
351.286	4.88
352.061	4.88
352.836	1.88
353.612	2.88
354.387	0.88
355.162	1.88
355.937	-1.12
356.712	0.88
357.487	2.88
358.261	-0.12
359.036	2.88
359.811	3.88
360.585	3.88
361.36	2.88
362.134	-0.12
362.909	1.88
363.683	-0.12
364.457	-3.12
365.231	1.88
366.005	1.88
366.779	1.88
367.553	1.88
368.327	4.88
369.101	0.88
369.875	4.88
370.648	-0.12
371.422	2.88
372.196	-0.12
372.969	2.88
373.742	6.88
374.516	2.88
375.289	2.88
376.062	2.88
376.835	0.88
377.608	1.88
378.381	2.88
379.154	-0.12
379.927	2.88
380.7	4.88
381.473	-0.12
382.245	2.88
383.018	2.88
383.79	-0.12
384.563	5.88
385.335	4.88
386.107	4.88
386.88	0.88
387.652	1.88
388.424	1.88
389.196	0.88
389.968	0.88
390.74	0.88
391.511	4.88
392.283	-1.12
393.055	-0.12
393.826	1.88
394.598	3.88
395.369	1.88
396.141	6.88
396.912	0.88
397.683	2.88
398.455	4.88
399.226	4.88
399.997	-0.12
400.768	4.88
401.539	1.88
402.309	0.88
403.08	1.88
403.851	4.88
404.621	1.88
405.392	1.88
406.162	1.88
406.933	-0.12
407.703	1.88
408.474	4.88
409.244	1.88
410.014	2.88
410.784	2.88
411.554	2.88
412.324	4.88
413.094	-0.12
413.863	-0.12
414.633	-0.12
415.403	3.88
416.172	-1.12
416.942	5.88
417.711	2.88
418.481	5.88
419.25	3.88
420.019	4.88
420.788	3.88
421.558	3.88
422.327	2.88
423.095	1.88
423.864	2.88
424.633	3.88
425.402	5.88
426.171	3.88
426.939	3.88
427.708	-0.12
428.476	3.88
429.245	1.88
430.013	7.88
430.781	2.88
431.549	6.88
432.317	0.88
433.085	3.88
433.853	0.88
434.621	1.88
435.389	4.88
436.157	0.88
436.925	0.88
437.692	3.88
438.46	2.88
439.227	1.88
439.995	1.88
440.762	-2.12
441.529	2.88
442.297	5.88
443.064	4.88
443.831	2.88
444.598	8.88
445.365	-0.12
446.132	0.88
446.898	3.88
447.665	4.88
448.432	0.88
449.198	1.88
449.965	-1.12
450.731	1.88
451.498	0.88
452.264	-1.12
453.03	3.88
453.796	1.88
454.562	2.88
455.328	0.88
456.094	2.88
456.86	-0.12
457.626	5.88
458.392	1.88
459.157	5.88
459.923	6.88
460.689	3.88
461.454	5.88
462.219	-0.12
462.985	3.88
463.75	3.88
464.515	2.88
465.28	7.88
466.045	7.88
466.81	2.88
467.575	2.88
468.34	1.88
469.105	4.88
469.869	-1.12
470.634	5.88
471.399	2.88
472.163	7.88
472.927	1.88
473.692	2.88
474.456	0.88
475.22	4.88
475.984	4.88
476.748	1.88
477.512	2.88
478.276	5.88
479.04	4.88
479.804	0.88
480.568	-0.12
481.331	1.88
482.095	1.88
482.858	3.88
483.622	3.88
484.385	4.88
485.148	1.88
485.912	5.88
486.675	5.88
487.438	4.88
488.201	1.88
488.964	4.88
489.727	1.88
490.489	4.88
491.252	6.88
492.015	3.88
492.777	6.88
493.54	4.88
494.302	5.88
495.065	7.88
495.827	9.88
496.589	5.88
497.351	4.88
498.114	9.88
498.876	5.88
499.637	6.88
500.399	2.88
501.161	3.88
501.923	7.88
502.685	7.88
503.446	9.88
504.208	10.88
504.969	9.88
505.731	6.88
506.492	6.88
507.253	13.88
508.014	10.88
508.775	5.88
509.536	8.88
510.297	9.88
511.058	12.88
511.819	10.88
512.58	10.88
513.341	10.88
514.101	17.88
514.862	11.88
515.622	10.88
516.383	12.88
517.143	11.88
517.903	13.88
518.663	22.88
519.423	18.88
520.184	17.88
520.944	18.88
521.703	21.88
522.463	19.88
523.223	21.88
523.983	27.88
524.742	30.88
525.502	26.88
526.261	33.88
527.021	32.88
527.78	34.88
528.539	35.88
529.299	35.88
530.058	44.88
530.817	44.88
531.576	52.88
532.335	49.88
533.094	46.88
533.852	50.88
534.611	52.88
535.37	58.88
536.128	54.88
536.887	59.88
537.645	72.88
538.404	70.88
539.162	75.88
539.92	100.88
540.678	144.88
541.436	286.88
542.194	453.88
542.952	641.88
543.71	1905.88
544.468	3636.88
545.226	3417.88
545.983	4280.88
546.741	9892.88
547.498	11349.88
548.256	6862.88
549.013	9720.88
549.77	15391.88
550.528	10824.88
551.285	4822.88
552.042	6203.88
552.799	6574.88
553.556	3080.88
554.313	1075.88
555.069	1016.88
555.826	756.88
556.583	281.88
557.339	100.88
558.096	69.88
558.852	43.88
559.609	30.88
560.365	28.88
561.121	22.88
561.877	21.88
562.634	14.88
563.39	11.88
564.146	13.88
564.901	14.88
565.657	10.88
566.413	11.88
567.169	6.88
567.924	7.88
568.68	7.88
569.435	6.88
570.191	9.88
570.946	4.88
571.701	7.88
572.456	10.88
573.211	4.88
573.966	5.88
574.721	6.88
575.476	5.88
576.231	4.88
576.986	3.88
577.741	4.88
578.495	1.88
579.25	5.88
580.004	-0.12
580.759	6.88
581.513	4.88
582.267	3.88
583.021	4.88
583.775	7.88
584.529	3.88
585.283	2.88
586.037	6.88
586.791	3.88
587.545	4.88
588.299	0.88
589.052	9.88
589.806	1.88
590.559	3.88
591.313	1.88
592.066	9.88
592.819	7.88
593.572	2.88
594.325	4.88
595.078	2.88
595.831	4.88
596.584	-0.12
597.337	3.88
598.09	0.88
598.843	2.88
599.595	6.88
600.348	8.88
601.1	1.88
601.853	3.88
602.605	2.88
603.357	4.88
604.109	2.88
604.862	3.88
605.614	-0.12
606.366	5.88
607.117	1.88
607.869	2.88
608.621	6.88
609.373	5.88
610.124	5.88
610.876	8.88
611.627	7.88
612.379	7.88
613.13	9.88
613.881	8.88
614.633	8.88
615.384	12.88
616.135	4.88
616.886	11.88
617.637	7.88
618.387	11.88
619.138	13.88
619.889	12.88
620.639	10.88
621.39	9.88
622.141	12.88
622.891	16.88
623.641	13.88
624.392	10.88
625.142	17.88
625.892	14.88
626.642	12.88
627.392	16.88
628.142	13.88
628.892	13.88
629.641	9.88
630.391	12.88
631.141	16.88
631.89	20.88
632.64	16.88
633.389	19.88
634.138	18.88
634.888	18.88
635.637	19.88
636.386	22.88
637.135	28.88
637.884	25.88
638.633	31.88
639.382	40.88
640.131	41.88
640.879	42.88
641.628	51.88
642.376	50.88
643.125	53.88
643.873	63.88
644.622	57.88
645.37	61.88
646.118	69.88
646.866	74.88
647.614	79.88
648.362	85.88
649.11	87.88
649.858	84.88
650.606	91.88
651.353	99.88
652.101	114.88
652.849	127.88
653.596	154.88
654.343	206.88
655.091	349.88
655.838	706.88
656.585	1336.88
657.332	2213.88
658.079	2741.88
658.826	2456.88
659.573	1961.88
660.32	3132.88
661.067	8538.88
661.814	18326.88
662.56	29492.88
663.307	36331.88
664.053	34433.88
664.8	26038.88
665.546	15414.88
666.292	6836.88
667.038	2575.88
667.785	1425.88
668.531	1925.88
669.277	2524.88
670.022	2642.88
670.768	2098.88
671.514	1348.88
672.26	710.88
673.005	299.88
673.751	112.88
674.496	57.88
675.242	30.88
675.987	31.88
676.732	29.88
677.478	20.88
678.223	19.88
678.968	17.88
679.713	17.88
680.458	10.88
681.202	12.88
681.947	11.88
682.692	10.88
683.436	3.88
684.181	6.88
684.925	7.88
685.67	8.88
686.414	4.88
687.158	8.88
687.903	2.88
688.647	7.88
689.391	2.88
690.135	0.88
690.879	1.88
691.622	4.88
692.366	4.88
693.11	9.88
693.853	2.88
694.597	5.88
695.34	4.88
696.084	2.88
696.827	4.88
697.57	5.88
698.313	1.88
699.057	2.88
699.8	2.88
700.543	3.88
701.285	5.88
702.028	7.88
702.771	-0.12
703.514	7.88
704.256	1.88
704.999	1.88
705.741	4.88
706.484	2.88
707.226	4.88
707.968	2.88
708.71	0.88
709.452	8.88
710.194	4.88
710.936	4.88
711.678	5.88
712.42	3.88
713.162	6.88
713.903	4.88
714.645	4.88
715.387	4.88
716.128	14.88
716.869	4.88
717.611	4.88
718.352	2.88
719.093	2.88
719.834	1.88
720.575	6.88
721.316	3.88
722.057	4.88
722.798	5.88
723.538	3.88
724.279	6.88
725.02	3.88
725.76	4.88
726.501	4.88
727.241	4.88
727.981	3.88
728.721	0.88
729.462	3.88
730.202	2.88
730.942	1.88
731.682	4.88
732.421	2.88
733.161	0.88
733.901	0.88
734.641	2.88
735.38	-0.12
736.12	2.88
736.859	2.88
737.598	3.88
738.338	4.88
739.077	6.88
739.816	-0.12
740.555	2.88
741.294	1.88
742.033	3.88
742.772	3.88
743.511	6.88
744.249	4.88
744.988	3.88
745.726	4.88
746.465	4.88
747.203	5.88
747.942	1.88
748.68	7.88
749.418	7.88
750.156	6.88
750.894	8.88
751.632	1.88
752.37	-0.12
753.108	3.88
753.846	2.88
754.583	1.88
755.321	3.88
756.059	9.88
756.796	4.88
757.533	3.88
758.271	4.88
759.008	6.88
759.745	5.88
760.482	1.88
761.219	5.88
761.956	3.88
762.693	3.88
763.43	4.88
764.167	2.88
764.903	4.88
765.64	6.88
766.377	1.88
767.113	1.88
767.849	3.88
768.586	3.88
769.322	0.88
770.058	1.88
770.794	5.88
771.53	6.88
772.266	1.88
773.002	0.88
773.738	7.88
774.474	4.88
775.209	1.88
775.945	6.88
776.68	1.88
777.416	-1.12
778.151	3.88
778.886	6.88
779.622	7.88
780.357	4.88
781.092	3.88
781.827	2.88
782.562	5.88
783.297	8.88
784.031	6.88
784.766	5.88
785.501	7.88
786.235	3.88
786.97	5.88
787.704	7.88
788.439	6.88
789.173	5.88
789.907	7.88
790.641	2.88
791.375	8.88
792.109	7.88
792.843	7.88
793.577	8.88
794.311	7.88
795.044	8.88
795.778	7.88
796.512	9.88
797.245	3.88
797.978	6.88
798.712	9.88
799.445	3.88
800.178	5.88
800.911	6.88
801.644	6.88
802.377	7.88
803.11	6.88
803.843	10.88
804.576	10.88
805.308	9.88
806.041	12.88
806.774	13.88
807.506	6.88
808.238	8.88
808.971	8.88
809.703	12.88
810.435	6.88
811.167	5.88
811.899	9.88
812.631	5.88
813.363	11.88
814.095	10.88
814.827	10.88
815.558	11.88
816.29	16.88
817.021	5.88
817.753	14.88
818.484	14.88
819.215	20.88
819.947	31.88
820.678	47.88
821.409	69.88
822.14	91.88
822.871	109.88
823.602	130.88
824.332	167.88
825.063	192.88
825.794	185.88
826.524	202.88
827.255	174.88
827.985	163.88
828.716	150.88
829.446	142.88
830.176	121.88
830.906	108.88
831.636	93.88
832.366	85.88
833.096	62.88
833.826	52.88
834.556	84.88
835.285	167.88
836.015	293.88
836.744	487.88
837.474	725.88
838.203	974.88
838.933	1177.88
839.662	1318.88
840.391	1383.88
841.12	1406.88
841.849	1337.88
842.578	1168.88
843.307	925.88
844.036	703.88
844.764	556.88
845.493	371.88
846.222	239.88
846.95	151.88
847.679	86.88
848.407	56.88
849.135	36.88
849.864	27.88
850.592	19.88
851.32	13.88
852.048	12.88
852.776	13.88
853.504	10.88
854.231	11.88
854.959	5.88
855.687	12.88
856.414	5.88
857.142	5.88
857.869	8.88
858.596	9.88
859.324	10.88
860.051	4.88
860.778	3.88
861.505	8.88
862.232	10.88
862.959	4.88
863.686	7.88
864.413	5.88
865.139	3.88
865.866	4.88
866.592	12.88
867.319	3.88
868.045	5.88
868.772	6.88
869.498	10.88
870.224	10.88
870.95	8.88
871.676	8.88
872.402	7.88
873.128	4.88
873.854	11.88
874.579	12.88
875.305	8.88
876.031	5.88
876.756	2.88
877.482	9.88
878.207	5.88
878.932	8.88
879.657	0.88
880.383	7.88
881.108	5.88
881.833	7.88
882.557	5.88
883.282	3.88
884.007	7.88
884.732	3.88
885.456	8.88
886.181	6.88
886.905	4.88
887.63	10.88
888.354	8.88
889.078	5.88
889.803	5.88
890.527	6.88
891.251	4.88
891.975	6.88
892.699	7.88
893.422	8.88
894.146	6.88
894.87	4.88
895.593	8.88
896.317	9.88
897.04	8.88
897.764	6.88
898.487	8.88
899.21	8.88
899.933	6.88
900.656	6.88
901.38	7.88
902.102	7.88
902.825	11.88
903.548	11.88
904.271	6.88
904.993	6.88
905.716	7.88
906.438	8.88
907.161	4.88
907.883	3.88
908.605	6.88
909.328	9.88
910.05	8.88
910.772	4.88
911.494	4.88
912.216	13.88
912.938	7.88
913.659	6.88
914.381	7.88
915.103	10.88
915.824	7.88
916.546	12.88
917.267	6.88
917.988	8.88
918.709	7.88
919.431	4.88
920.152	7.88
920.873	7.88
921.594	6.88
922.315	3.88
923.035	6.88
923.756	5.88
924.477	6.88
925.197	7.88
925.918	10.88
926.638	8.88
927.359	7.88
928.079	8.88
928.799	8.88
929.519	9.88
930.239	7.88
930.959	8.88
931.679	11.88
932.399	6.88
933.119	9.88
933.838	6.88
934.558	5.88
935.277	5.88
935.997	9.88
936.716	4.88
937.436	3.88
938.155	6.88
938.874	8.88
939.593	6.88
940.312	10.88
941.031	6.88
941.75	7.88
942.469	11.88
943.187	6.88
943.906	9.88
944.625	5.88
945.343	6.88
946.062	6.88
946.78	9.88
947.498	2.88
948.216	6.88
948.935	7.88
949.653	10.88
950.371	5.88
951.089	11.88
951.806	7.88
952.524	7.88
953.242	6.88
953.959	12.88
954.677	7.88
955.394	8.88
956.112	7.88
956.829	8.88
957.546	5.88
958.263	9.88
958.981	6.88
959.698	8.88
960.415	8.88
961.131	7.88
961.848	9.88
962.565	5.88
963.282	10.88
963.998	3.88
964.715	6.88
965.431	7.88
966.147	8.88
966.864	9.88
967.58	7.88
968.296	8.88
969.012	6.88
969.728	5.88
970.444	9.88
971.16	10.88
971.876	9.88
972.591	3.88
973.307	8.88
974.022	10.88
974.738	8.88
975.453	7.88
976.169	8.88
976.884	9.88
977.599	4.88
978.314	6.88
979.029	9.88
979.744	-1.12
980.459	-4.12
981.174	-3.12
981.888	0.88
