Data from emission_pump_1100nm_signal_1550nm_QEP037791__0__14-00-27-173.txt Node

Date: Thu Sep 11 14:00:27 BST 2025
User: EGI3ZEZ
Spectrometer: QEP03779
Trigger mode: 4
Integration Time (sec): 1.000000E-1
Scans to average: 1
Electric dark correction enabled: true
Nonlinearity correction enabled: false
Boxcar width: 0
XAxis mode: Wavelengths
Number of Pixels in Spectrum: 1044
>>>>>Begin Spectral Data<<<<<
197.204	12.38
197.993	1.38
198.782	-1.62
199.571	-2.62
200.359	-0.62
201.148	1.38
201.936	0.38
202.725	2.38
203.513	3.38
204.301	4.38
205.09	-0.62
205.878	0.38
206.666	-0.62
207.454	2.38
208.242	2.38
209.03	7.38
209.818	-0.62
210.605	-0.62
211.393	0.38
212.181	0.38
212.968	2.38
213.756	0.38
214.543	3.38
215.33	3.38
216.118	2.38
216.905	1.38
217.692	2.38
218.479	2.38
219.266	4.38
220.053	2.38
220.84	-0.62
221.627	5.38
222.413	5.38
223.2	5.38
223.987	2.38
224.773	5.38
225.56	1.38
226.346	5.38
227.132	4.38
227.918	3.38
228.705	4.38
229.491	5.38
230.277	2.38
231.063	4.38
231.849	2.38
232.635	0.38
233.42	5.38
234.206	2.38
234.992	4.38
235.777	3.38
236.563	5.38
237.348	0.38
238.134	0.38
238.919	4.38
239.704	4.38
240.489	1.38
241.274	1.38
242.059	3.38
242.844	2.38
243.629	3.38
244.414	3.38
245.199	7.38
245.983	1.38
246.768	1.38
247.553	0.38
248.337	7.38
249.121	3.38
249.906	2.38
250.69	3.38
251.474	6.38
252.258	5.38
253.042	4.38
253.826	1.38
254.61	6.38
255.394	3.38
256.178	3.38
256.962	2.38
257.745	0.38
258.529	3.38
259.313	8.38
260.096	2.38
260.879	4.38
261.663	8.38
262.446	1.38
263.229	5.38
264.012	-0.62
264.795	1.38
265.578	2.38
266.361	3.38
267.144	4.38
267.927	-0.62
268.709	4.38
269.492	4.38
270.275	-0.62
271.057	7.38
271.839	1.38
272.622	3.38
273.404	-0.62
274.186	2.38
274.969	0.38
275.751	-0.62
276.533	5.38
277.315	6.38
278.096	2.38
278.878	5.38
279.66	6.38
280.442	4.38
281.223	3.38
282.005	2.38
282.786	6.38
283.568	2.38
284.349	3.38
285.13	1.38
285.911	3.38
286.693	7.38
287.474	2.38
288.255	-1.62
289.035	1.38
289.816	4.38
290.597	3.38
291.378	3.38
292.158	-1.62
292.939	5.38
293.72	4.38
294.5	6.38
295.28	1.38
296.061	4.38
296.841	1.38
297.621	6.38
298.401	6.38
299.181	1.38
299.961	3.38
300.741	2.38
301.521	0.38
302.301	5.38
303.08	1.38
303.86	2.38
304.639	3.38
305.419	4.38
306.198	0.38
306.978	4.38
307.757	4.38
308.536	4.38
309.315	3.38
310.094	3.38
310.873	1.38
311.652	1.38
312.431	4.38
313.21	4.38
313.988	3.38
314.767	3.38
315.546	5.38
316.324	4.38
317.103	3.38
317.881	2.38
318.659	4.38
319.438	7.38
320.216	2.38
320.994	2.38
321.772	3.38
322.55	0.38
323.328	6.38
324.106	0.38
324.883	0.38
325.661	1.38
326.439	-0.62
327.216	0.38
327.994	3.38
328.771	3.38
329.548	3.38
330.326	5.38
331.103	4.38
331.88	3.38
332.657	2.38
333.434	2.38
334.211	3.38
334.988	1.38
335.765	1.38
336.541	4.38
337.318	2.38
338.094	0.38
338.871	2.38
339.647	1.38
340.424	2.38
341.2	2.38
341.976	-1.62
342.753	7.38
343.529	-0.62
344.305	6.38
345.081	1.38
345.856	2.38
346.632	2.38
347.408	8.38
348.184	4.38
348.959	2.38
349.735	4.38
350.51	5.38
351.286	2.38
352.061	0.38
352.836	5.38
353.612	-1.62
354.387	1.38
355.162	0.38
355.937	6.38
356.712	3.38
357.487	3.38
358.261	5.38
359.036	2.38
359.811	2.38
360.585	2.38
361.36	6.38
362.134	3.38
362.909	3.38
363.683	1.38
364.457	5.38
365.231	2.38
366.005	6.38
366.779	8.38
367.553	5.38
368.327	-0.62
369.101	5.38
369.875	0.38
370.648	4.38
371.422	1.38
372.196	1.38
372.969	2.38
373.742	1.38
374.516	2.38
375.289	2.38
376.062	2.38
376.835	4.38
377.608	1.38
378.381	1.38
379.154	4.38
379.927	0.38
380.7	3.38
381.473	3.38
382.245	1.38
383.018	2.38
383.79	6.38
384.563	3.38
385.335	0.38
386.107	1.38
386.88	3.38
387.652	4.38
388.424	2.38
389.196	-2.62
389.968	0.38
390.74	4.38
391.511	3.38
392.283	3.38
393.055	2.38
393.826	4.38
394.598	1.38
395.369	0.38
396.141	-2.62
396.912	1.38
397.683	3.38
398.455	0.38
399.226	1.38
399.997	3.38
400.768	3.38
401.539	2.38
402.309	4.38
403.08	3.38
403.851	4.38
404.621	4.38
405.392	4.38
406.162	-2.62
406.933	1.38
407.703	3.38
408.474	3.38
409.244	2.38
410.014	-2.62
410.784	-0.62
411.554	1.38
412.324	3.38
413.094	2.38
413.863	4.38
414.633	5.38
415.403	2.38
416.172	3.38
416.942	3.38
417.711	2.38
418.481	6.38
419.25	1.38
420.019	5.38
420.788	3.38
421.558	5.38
422.327	5.38
423.095	1.38
423.864	3.38
424.633	5.38
425.402	5.38
426.171	2.38
426.939	1.38
427.708	3.38
428.476	7.38
429.245	-0.62
430.013	1.38
430.781	1.38
431.549	1.38
432.317	2.38
433.085	-0.62
433.853	0.38
434.621	6.38
435.389	3.38
436.157	2.38
436.925	3.38
437.692	3.38
438.46	0.38
439.227	4.38
439.995	3.38
440.762	4.38
441.529	4.38
442.297	6.38
443.064	4.38
443.831	2.38
444.598	4.38
445.365	-1.62
446.132	1.38
446.898	1.38
447.665	5.38
448.432	5.38
449.198	5.38
449.965	2.38
450.731	2.38
451.498	2.38
452.264	9.38
453.03	2.38
453.796	4.38
454.562	8.38
455.328	4.38
456.094	0.38
456.86	0.38
457.626	4.38
458.392	3.38
459.157	1.38
459.923	1.38
460.689	5.38
461.454	6.38
462.219	4.38
462.985	4.38
463.75	3.38
464.515	1.38
465.28	4.38
466.045	5.38
466.81	4.38
467.575	2.38
468.34	3.38
469.105	6.38
469.869	4.38
470.634	2.38
471.399	4.38
472.163	5.38
472.927	0.38
473.692	0.38
474.456	0.38
475.22	0.38
475.984	6.38
476.748	2.38
477.512	-2.62
478.276	3.38
479.04	1.38
479.804	5.38
480.568	-0.62
481.331	3.38
482.095	5.38
482.858	6.38
483.622	6.38
484.385	3.38
485.148	4.38
485.912	2.38
486.675	6.38
487.438	4.38
488.201	7.38
488.964	-0.62
489.727	4.38
490.489	8.38
491.252	6.38
492.015	7.38
492.777	3.38
493.54	7.38
494.302	8.38
495.065	9.38
495.827	7.38
496.589	5.38
497.351	5.38
498.114	7.38
498.876	6.38
499.637	9.38
500.399	12.38
501.161	12.38
501.923	7.38
502.685	10.38
503.446	10.38
504.208	9.38
504.969	9.38
505.731	8.38
506.492	12.38
507.253	9.38
508.014	11.38
508.775	14.38
509.536	10.38
510.297	10.38
511.058	14.38
511.819	12.38
512.58	15.38
513.341	11.38
514.101	15.38
514.862	16.38
515.622	19.38
516.383	13.38
517.143	6.38
517.903	12.38
518.663	17.38
519.423	12.38
520.184	19.38
520.944	21.38
521.703	24.38
522.463	24.38
523.223	25.38
523.983	28.38
524.742	30.38
525.502	29.38
526.261	35.38
527.021	36.38
527.78	36.38
528.539	40.38
529.299	43.38
530.058	41.38
530.817	38.38
531.576	49.38
532.335	49.38
533.094	50.38
533.852	56.38
534.611	58.38
535.37	55.38
536.128	56.38
536.887	58.38
537.645	62.38
538.404	65.38
539.162	73.38
539.92	88.38
540.678	137.38
541.436	279.38
542.194	444.38
542.952	632.38
543.71	1775.38
544.468	3589.38
545.226	3336.38
545.983	4103.38
546.741	9533.38
547.498	11187.38
548.256	6750.38
549.013	9095.38
549.77	14646.38
550.528	10362.38
551.285	4580.38
552.042	5747.38
552.799	6173.38
553.556	2963.38
554.313	1011.38
555.069	966.38
555.826	694.38
556.583	261.38
557.339	95.38
558.096	66.38
558.852	49.38
559.609	35.38
560.365	20.38
561.121	23.38
561.877	22.38
562.634	13.38
563.39	16.38
564.146	10.38
564.901	14.38
565.657	10.38
566.413	10.38
567.169	7.38
567.924	6.38
568.68	8.38
569.435	6.38
570.191	1.38
570.946	6.38
571.701	8.38
572.456	7.38
573.211	7.38
573.966	2.38
574.721	10.38
575.476	9.38
576.231	4.38
576.986	6.38
577.741	6.38
578.495	7.38
579.25	8.38
580.004	4.38
580.759	10.38
581.513	6.38
582.267	6.38
583.021	6.38
583.775	7.38
584.529	10.38
585.283	7.38
586.037	9.38
586.791	7.38
587.545	10.38
588.299	14.38
589.052	8.38
589.806	11.38
590.559	12.38
591.313	15.38
592.066	9.38
592.819	17.38
593.572	14.38
594.325	14.38
595.078	18.38
595.831	16.38
596.584	17.38
597.337	18.38
598.09	21.38
598.843	19.38
599.595	18.38
600.348	18.38
601.1	21.38
601.853	20.38
602.605	22.38
603.357	23.38
604.109	21.38
604.862	20.38
605.614	22.38
606.366	26.38
607.117	25.38
607.869	31.38
608.621	23.38
609.373	28.38
610.124	30.38
610.876	35.38
611.627	36.38
612.379	35.38
613.13	40.38
613.881	48.38
614.633	45.38
615.384	56.38
616.135	55.38
616.886	67.38
617.637	68.38
618.387	69.38
619.138	68.38
619.889	80.38
620.639	88.38
621.39	101.38
622.141	100.38
622.891	101.38
623.641	114.38
624.392	113.38
625.142	132.38
625.892	132.38
626.642	129.38
627.392	152.38
628.142	171.38
628.892	223.38
629.641	326.38
630.391	419.38
631.141	434.38
631.89	366.38
632.64	466.38
633.389	1198.38
634.138	2907.38
634.888	5355.38
635.637	7455.38
636.386	7088.38
637.135	4996.38
637.884	4964.38
638.633	13232.38
639.382	30829.38
640.131	49183.38
640.879	56310.38
641.628	47566.38
642.376	28170.38
643.125	12040.38
643.873	5989.38
644.622	7951.38
645.37	11440.38
646.118	12134.38
646.866	9710.38
647.614	6004.38
648.362	3056.38
649.11	1202.38
649.858	496.38
650.606	390.38
651.353	418.38
652.101	367.38
652.849	284.38
653.596	170.38
654.343	95.38
655.091	45.38
655.838	27.38
656.585	22.38
657.332	19.38
658.079	17.38
658.826	18.38
659.573	15.38
660.32	16.38
661.067	10.38
661.814	10.38
662.56	15.38
663.307	5.38
664.053	4.38
664.8	14.38
665.546	8.38
666.292	7.38
667.038	8.38
667.785	6.38
668.531	10.38
669.277	7.38
670.022	4.38
670.768	8.38
671.514	5.38
672.26	4.38
673.005	6.38
673.751	8.38
674.496	7.38
675.242	7.38
675.987	7.38
676.732	3.38
677.478	2.38
678.223	6.38
678.968	8.38
679.713	7.38
680.458	8.38
681.202	6.38
681.947	5.38
682.692	6.38
683.436	1.38
684.181	4.38
684.925	5.38
685.67	1.38
686.414	2.38
687.158	3.38
687.903	8.38
688.647	4.38
689.391	3.38
690.135	7.38
690.879	4.38
691.622	4.38
692.366	7.38
693.11	-0.62
693.853	3.38
694.597	5.38
695.34	3.38
696.084	2.38
696.827	2.38
697.57	3.38
698.313	5.38
699.057	6.38
699.8	6.38
700.543	5.38
701.285	4.38
702.028	3.38
702.771	4.38
703.514	3.38
704.256	8.38
704.999	5.38
705.741	2.38
706.484	2.38
707.226	2.38
707.968	4.38
708.71	3.38
709.452	5.38
710.194	1.38
710.936	1.38
711.678	7.38
712.42	4.38
713.162	1.38
713.903	8.38
714.645	6.38
715.387	8.38
716.128	7.38
716.869	3.38
717.611	3.38
718.352	3.38
719.093	3.38
719.834	3.38
720.575	4.38
721.316	4.38
722.057	6.38
722.798	1.38
723.538	5.38
724.279	1.38
725.02	7.38
725.76	5.38
726.501	9.38
727.241	5.38
727.981	4.38
728.721	7.38
729.462	3.38
730.202	8.38
730.942	7.38
731.682	3.38
732.421	7.38
733.161	10.38
733.901	10.38
734.641	5.38
735.38	7.38
736.12	9.38
736.859	11.38
737.598	9.38
738.338	8.38
739.077	6.38
739.816	12.38
740.555	11.38
741.294	13.38
742.033	11.38
742.772	11.38
743.511	12.38
744.249	13.38
744.988	13.38
745.726	12.38
746.465	14.38
747.203	13.38
747.942	15.38
748.68	20.38
749.418	25.38
750.156	26.38
750.894	28.38
751.632	37.38
752.37	46.38
753.108	54.38
753.846	52.38
754.583	59.38
755.321	47.38
756.059	51.38
756.796	49.38
757.533	53.38
758.271	79.38
759.008	128.38
759.745	233.38
760.482	386.38
761.219	602.38
761.956	911.38
762.693	1199.38
763.43	1582.38
764.167	1984.38
764.903	2274.38
765.64	2364.38
766.377	2220.38
767.113	1933.38
767.849	1514.38
768.586	1052.38
769.322	639.38
770.058	427.38
770.794	572.38
771.53	1195.38
772.266	2245.38
773.002	3546.38
773.738	4955.38
774.474	6263.38
775.209	7112.38
775.945	7416.38
776.68	7061.38
777.416	6281.38
778.151	5025.38
778.886	3776.38
779.622	2628.38
780.357	1714.38
781.092	986.38
781.827	540.38
782.562	249.38
783.297	121.38
784.031	74.38
784.766	59.38
785.501	47.38
786.235	52.38
786.97	54.38
787.704	53.38
788.439	55.38
789.173	46.38
789.907	48.38
790.641	37.38
791.375	34.38
792.109	33.38
792.843	22.38
793.577	22.38
794.311	16.38
795.044	13.38
795.778	10.38
796.512	12.38
797.245	11.38
797.978	12.38
798.712	7.38
799.445	9.38
800.178	9.38
800.911	9.38
801.644	10.38
802.377	10.38
803.11	7.38
803.843	12.38
804.576	12.38
805.308	8.38
806.041	9.38
806.774	8.38
807.506	9.38
808.238	11.38
808.971	11.38
809.703	4.38
810.435	10.38
811.167	9.38
811.899	5.38
812.631	11.38
813.363	8.38
814.095	8.38
814.827	7.38
815.558	7.38
816.29	12.38
817.021	12.38
817.753	9.38
818.484	10.38
819.215	7.38
819.947	12.38
820.678	10.38
821.409	8.38
822.14	6.38
822.871	11.38
823.602	10.38
824.332	8.38
825.063	12.38
825.794	10.38
826.524	10.38
827.255	6.38
827.985	10.38
828.716	6.38
829.446	16.38
830.176	5.38
830.906	12.38
831.636	11.38
832.366	12.38
833.096	8.38
833.826	8.38
834.556	11.38
835.285	9.38
836.015	8.38
836.744	7.38
837.474	18.38
838.203	10.38
838.933	6.38
839.662	10.38
840.391	12.38
841.12	6.38
841.849	6.38
842.578	12.38
843.307	10.38
844.036	11.38
844.764	16.38
845.493	7.38
846.222	12.38
846.95	13.38
847.679	6.38
848.407	11.38
849.135	8.38
849.864	4.38
850.592	7.38
851.32	14.38
852.048	7.38
852.776	8.38
853.504	10.38
854.231	9.38
854.959	12.38
855.687	14.38
856.414	11.38
857.142	13.38
857.869	11.38
858.596	12.38
859.324	9.38
860.051	13.38
860.778	14.38
861.505	10.38
862.232	14.38
862.959	5.38
863.686	11.38
864.413	12.38
865.139	17.38
865.866	7.38
866.592	12.38
867.319	13.38
868.045	12.38
868.772	10.38
869.498	15.38
870.224	8.38
870.95	11.38
871.676	11.38
872.402	10.38
873.128	14.38
873.854	15.38
874.579	13.38
875.305	12.38
876.031	10.38
876.756	12.38
877.482	11.38
878.207	11.38
878.932	14.38
879.657	12.38
880.383	15.38
881.108	9.38
881.833	11.38
882.557	11.38
883.282	10.38
884.007	14.38
884.732	8.38
885.456	13.38
886.181	11.38
886.905	14.38
887.63	11.38
888.354	13.38
889.078	10.38
889.803	15.38
890.527	19.38
891.251	14.38
891.975	10.38
892.699	11.38
893.422	13.38
894.146	16.38
894.87	13.38
895.593	11.38
896.317	11.38
897.04	12.38
897.764	10.38
898.487	12.38
899.21	13.38
899.933	15.38
900.656	12.38
901.38	10.38
902.102	14.38
902.825	10.38
903.548	15.38
904.271	12.38
904.993	12.38
905.716	12.38
906.438	5.38
907.161	13.38
907.883	11.38
908.605	11.38
909.328	12.38
910.05	13.38
910.772	13.38
911.494	7.38
912.216	12.38
912.938	9.38
913.659	14.38
914.381	15.38
915.103	10.38
915.824	10.38
916.546	7.38
917.267	14.38
917.988	11.38
918.709	13.38
919.431	14.38
920.152	12.38
920.873	17.38
921.594	10.38
922.315	12.38
923.035	12.38
923.756	11.38
924.477	12.38
925.197	10.38
925.918	10.38
926.638	12.38
927.359	10.38
928.079	14.38
928.799	14.38
929.519	13.38
930.239	8.38
930.959	15.38
931.679	12.38
932.399	8.38
933.119	8.38
933.838	8.38
934.558	15.38
935.277	12.38
935.997	13.38
936.716	10.38
937.436	14.38
938.155	11.38
938.874	9.38
939.593	15.38
940.312	10.38
941.031	15.38
941.75	12.38
942.469	11.38
943.187	11.38
943.906	16.38
944.625	14.38
945.343	8.38
946.062	16.38
946.78	13.38
947.498	11.38
948.216	17.38
948.935	13.38
949.653	12.38
950.371	7.38
951.089	20.38
951.806	13.38
952.524	14.38
953.242	11.38
953.959	11.38
954.677	13.38
955.394	11.38
956.112	11.38
956.829	16.38
957.546	13.38
958.263	15.38
958.981	10.38
959.698	17.38
960.415	11.38
961.131	13.38
961.848	11.38
962.565	9.38
963.282	13.38
963.998	10.38
964.715	14.38
965.431	9.38
966.147	17.38
966.864	11.38
967.58	13.38
968.296	13.38
969.012	16.38
969.728	9.38
970.444	11.38
971.16	9.38
971.876	15.38
972.591	10.38
973.307	14.38
974.022	15.38
974.738	7.38
975.453	9.38
976.169	15.38
976.884	11.38
977.599	12.38
978.314	7.38
979.029	9.38
979.744	-0.62
980.459	-2.62
981.174	-3.62
981.888	-2.62
