Data from emission_pump_1100nm_signal_1450nm_QEP037791__0__14-39-21-608.txt Node

Date: Thu Sep 11 14:39:21 BST 2025
User: EGI3ZEZ
Spectrometer: QEP03779
Trigger mode: 4
Integration Time (sec): 1.000000E-1
Scans to average: 1
Electric dark correction enabled: true
Nonlinearity correction enabled: false
Boxcar width: 0
XAxis mode: Wavelengths
Number of Pixels in Spectrum: 1044
>>>>>Begin Spectral Data<<<<<
197.204	18.12
197.993	-1.88
198.782	-4.88
199.571	-2.88
200.359	-0.88
201.148	-0.88
201.936	0.12
202.725	2.12
203.513	-1.88
204.301	3.12
205.09	-0.88
205.878	-3.88
206.666	0.12
207.454	-3.88
208.242	1.12
209.03	0.12
209.818	1.12
210.605	1.12
211.393	0.12
212.181	1.12
212.968	0.12
213.756	-0.88
214.543	1.12
215.33	1.12
216.118	0.12
216.905	0.12
217.692	-0.88
218.479	4.12
219.266	3.12
220.053	0.12
220.84	4.12
221.627	3.12
222.413	3.12
223.2	0.12
223.987	2.12
224.773	1.12
225.56	3.12
226.346	5.12
227.132	1.12
227.918	3.12
228.705	3.12
229.491	-0.88
230.277	2.12
231.063	4.12
231.849	0.12
232.635	4.12
233.42	2.12
234.206	2.12
234.992	5.12
235.777	5.12
236.563	-2.88
237.348	2.12
238.134	1.12
238.919	0.12
239.704	2.12
240.489	2.12
241.274	-0.88
242.059	4.12
242.844	4.12
243.629	1.12
244.414	1.12
245.199	3.12
245.983	1.12
246.768	2.12
247.553	1.12
248.337	-0.88
249.121	4.12
249.906	0.12
250.69	2.12
251.474	-2.88
252.258	3.12
253.042	1.12
253.826	-1.88
254.61	-0.88
255.394	1.12
256.178	0.12
256.962	1.12
257.745	-0.88
258.529	2.12
259.313	2.12
260.096	0.12
260.879	-0.88
261.663	3.12
262.446	5.12
263.229	1.12
264.012	-0.88
264.795	2.12
265.578	4.12
266.361	0.12
267.144	1.12
267.927	0.12
268.709	2.12
269.492	-0.88
270.275	1.12
271.057	2.12
271.839	-2.88
272.622	0.12
273.404	3.12
274.186	0.12
274.969	1.12
275.751	2.12
276.533	-2.88
277.315	0.12
278.096	0.12
278.878	2.12
279.66	-0.88
280.442	3.12
281.223	4.12
282.005	0.12
282.786	1.12
283.568	0.12
284.349	1.12
285.13	4.12
285.911	4.12
286.693	2.12
287.474	2.12
288.255	1.12
289.035	0.12
289.816	6.12
290.597	-0.88
291.378	3.12
292.158	2.12
292.939	1.12
293.72	4.12
294.5	0.12
295.28	-0.88
296.061	-1.88
296.841	1.12
297.621	-0.88
298.401	0.12
299.181	0.12
299.961	1.12
300.741	5.12
301.521	1.12
302.301	1.12
303.08	2.12
303.86	2.12
304.639	3.12
305.419	-2.88
306.198	-3.88
306.978	3.12
307.757	-1.88
308.536	2.12
309.315	-2.88
310.094	-1.88
310.873	0.12
311.652	5.12
312.431	3.12
313.21	0.12
313.988	0.12
314.767	4.12
315.546	2.12
316.324	0.12
317.103	1.12
317.881	1.12
318.659	3.12
319.438	1.12
320.216	5.12
320.994	-0.88
321.772	1.12
322.55	3.12
323.328	5.12
324.106	3.12
324.883	2.12
325.661	-0.88
326.439	4.12
327.216	-3.88
327.994	2.12
328.771	2.12
329.548	3.12
330.326	-0.88
331.103	4.12
331.88	3.12
332.657	-1.88
333.434	-1.88
334.211	-1.88
334.988	4.12
335.765	-0.88
336.541	2.12
337.318	2.12
338.094	6.12
338.871	2.12
339.647	1.12
340.424	0.12
341.2	1.12
341.976	-0.88
342.753	1.12
343.529	2.12
344.305	2.12
345.081	3.12
345.856	-0.88
346.632	4.12
347.408	0.12
348.184	-1.88
348.959	0.12
349.735	7.12
350.51	-1.88
351.286	1.12
352.061	6.12
352.836	0.12
353.612	0.12
354.387	5.12
355.162	2.12
355.937	6.12
356.712	0.12
357.487	4.12
358.261	0.12
359.036	6.12
359.811	1.12
360.585	3.12
361.36	2.12
362.134	0.12
362.909	0.12
363.683	3.12
364.457	3.12
365.231	-1.88
366.005	-0.88
366.779	4.12
367.553	4.12
368.327	4.12
369.101	2.12
369.875	5.12
370.648	1.12
371.422	5.12
372.196	-1.88
372.969	1.12
373.742	1.12
374.516	2.12
375.289	3.12
376.062	0.12
376.835	3.12
377.608	3.12
378.381	-1.88
379.154	1.12
379.927	0.12
380.7	2.12
381.473	1.12
382.245	3.12
383.018	0.12
383.79	2.12
384.563	0.12
385.335	5.12
386.107	6.12
386.88	-2.88
387.652	3.12
388.424	1.12
389.196	0.12
389.968	3.12
390.74	2.12
391.511	0.12
392.283	10.12
393.055	1.12
393.826	-3.88
394.598	3.12
395.369	0.12
396.141	1.12
396.912	3.12
397.683	1.12
398.455	4.12
399.226	2.12
399.997	-1.88
400.768	3.12
401.539	0.12
402.309	2.12
403.08	3.12
403.851	4.12
404.621	2.12
405.392	0.12
406.162	4.12
406.933	3.12
407.703	0.12
408.474	0.12
409.244	4.12
410.014	3.12
410.784	0.12
411.554	1.12
412.324	4.12
413.094	0.12
413.863	0.12
414.633	-0.88
415.403	1.12
416.172	5.12
416.942	2.12
417.711	5.12
418.481	2.12
419.25	1.12
420.019	2.12
420.788	3.12
421.558	2.12
422.327	5.12
423.095	4.12
423.864	3.12
424.633	6.12
425.402	1.12
426.171	0.12
426.939	2.12
427.708	-2.88
428.476	5.12
429.245	2.12
430.013	-0.88
430.781	-3.88
431.549	-1.88
432.317	2.12
433.085	3.12
433.853	-2.88
434.621	0.12
435.389	3.12
436.157	3.12
436.925	3.12
437.692	3.12
438.46	5.12
439.227	2.12
439.995	1.12
440.762	1.12
441.529	0.12
442.297	0.12
443.064	4.12
443.831	4.12
444.598	0.12
445.365	3.12
446.132	4.12
446.898	2.12
447.665	2.12
448.432	3.12
449.198	2.12
449.965	5.12
450.731	1.12
451.498	-0.88
452.264	3.12
453.03	4.12
453.796	3.12
454.562	5.12
455.328	4.12
456.094	1.12
456.86	4.12
457.626	4.12
458.392	4.12
459.157	-0.88
459.923	-2.88
460.689	1.12
461.454	-1.88
462.219	2.12
462.985	-0.88
463.75	1.12
464.515	0.12
465.28	6.12
466.045	3.12
466.81	3.12
467.575	3.12
468.34	0.12
469.105	2.12
469.869	3.12
470.634	0.12
471.399	6.12
472.163	2.12
472.927	3.12
473.692	5.12
474.456	6.12
475.22	1.12
475.984	1.12
476.748	3.12
477.512	1.12
478.276	5.12
479.04	3.12
479.804	0.12
480.568	-0.88
481.331	3.12
482.095	3.12
482.858	1.12
483.622	2.12
484.385	5.12
485.148	0.12
485.912	7.12
486.675	1.12
487.438	4.12
488.201	4.12
488.964	4.12
489.727	6.12
490.489	3.12
491.252	3.12
492.015	6.12
492.777	9.12
493.54	8.12
494.302	9.12
495.065	8.12
495.827	7.12
496.589	10.12
497.351	2.12
498.114	7.12
498.876	8.12
499.637	4.12
500.399	7.12
501.161	9.12
501.923	6.12
502.685	6.12
503.446	14.12
504.208	9.12
504.969	12.12
505.731	5.12
506.492	10.12
507.253	11.12
508.014	7.12
508.775	12.12
509.536	12.12
510.297	10.12
511.058	13.12
511.819	11.12
512.58	12.12
513.341	9.12
514.101	7.12
514.862	9.12
515.622	13.12
516.383	15.12
517.143	13.12
517.903	17.12
518.663	18.12
519.423	16.12
520.184	14.12
520.944	19.12
521.703	19.12
522.463	21.12
523.223	23.12
523.983	31.12
524.742	25.12
525.502	36.12
526.261	33.12
527.021	34.12
527.78	38.12
528.539	36.12
529.299	43.12
530.058	44.12
530.817	48.12
531.576	49.12
532.335	53.12
533.094	52.12
533.852	52.12
534.611	51.12
535.37	63.12
536.128	58.12
536.887	62.12
537.645	62.12
538.404	71.12
539.162	88.12
539.92	98.12
540.678	146.12
541.436	288.12
542.194	448.12
542.952	660.12
543.71	1945.12
544.468	3707.12
545.226	3479.12
545.983	4438.12
546.741	10145.12
547.498	11622.12
548.256	7127.12
549.013	10120.12
549.77	15944.12
550.528	11129.12
551.285	4993.12
552.042	6494.12
552.799	6789.12
553.556	3200.12
554.313	1121.12
555.069	1067.12
555.826	784.12
556.583	296.12
557.339	114.12
558.096	68.12
558.852	42.12
559.609	31.12
560.365	31.12
561.121	23.12
561.877	19.12
562.634	17.12
563.39	16.12
564.146	15.12
564.901	6.12
565.657	11.12
566.413	12.12
567.169	12.12
567.924	11.12
568.68	9.12
569.435	14.12
570.191	11.12
570.946	10.12
571.701	16.12
572.456	11.12
573.211	10.12
573.966	9.12
574.721	18.12
575.476	14.12
576.231	13.12
576.986	13.12
577.741	12.12
578.495	14.12
579.25	14.12
580.004	17.12
580.759	19.12
581.513	16.12
582.267	17.12
583.021	15.12
583.775	17.12
584.529	15.12
585.283	19.12
586.037	19.12
586.791	17.12
587.545	23.12
588.299	16.12
589.052	21.12
589.806	18.12
590.559	22.12
591.313	26.12
592.066	24.12
592.819	24.12
593.572	28.12
594.325	30.12
595.078	34.12
595.831	30.12
596.584	35.12
597.337	37.12
598.09	41.12
598.843	49.12
599.595	53.12
600.348	56.12
601.1	56.12
601.853	63.12
602.605	68.12
603.357	74.12
604.109	77.12
604.862	92.12
605.614	90.12
606.366	106.12
607.117	101.12
607.869	107.12
608.621	109.12
609.373	117.12
610.124	119.12
610.876	128.12
611.627	139.12
612.379	146.12
613.13	152.12
613.881	183.12
614.633	292.12
615.384	499.12
616.135	740.12
616.886	851.12
617.637	800.12
618.387	1384.12
619.138	4299.12
619.889	10524.12
620.639	17817.12
621.39	20350.12
622.141	15024.12
622.891	8614.12
623.641	11118.12
624.392	25773.12
625.142	42104.12
625.892	45244.12
626.642	33858.12
627.392	17604.12
628.142	6874.12
628.892	5505.12
629.641	8806.12
630.391	11029.12
631.141	9435.12
631.89	5900.12
632.64	2673.12
633.389	908.12
634.138	497.12
634.888	580.12
635.637	616.12
636.386	450.12
637.135	253.12
637.884	109.12
638.633	45.12
639.382	34.12
640.131	32.12
640.879	27.12
641.628	20.12
642.376	19.12
643.125	14.12
643.873	8.12
644.622	15.12
645.37	12.12
646.118	8.12
646.866	9.12
647.614	9.12
648.362	12.12
649.11	6.12
649.858	6.12
650.606	7.12
651.353	3.12
652.101	8.12
652.849	7.12
653.596	6.12
654.343	3.12
655.091	6.12
655.838	1.12
656.585	7.12
657.332	7.12
658.079	6.12
658.826	9.12
659.573	1.12
660.32	5.12
661.067	6.12
661.814	7.12
662.56	1.12
663.307	3.12
664.053	5.12
664.8	3.12
665.546	8.12
666.292	3.12
667.038	3.12
667.785	2.12
668.531	6.12
669.277	2.12
670.022	5.12
670.768	3.12
671.514	6.12
672.26	3.12
673.005	1.12
673.751	7.12
674.496	2.12
675.242	6.12
675.987	5.12
676.732	3.12
677.478	7.12
678.223	8.12
678.968	4.12
679.713	1.12
680.458	1.12
681.202	1.12
681.947	4.12
682.692	6.12
683.436	5.12
684.181	4.12
684.925	5.12
685.67	7.12
686.414	7.12
687.158	7.12
687.903	5.12
688.647	5.12
689.391	5.12
690.135	8.12
690.879	4.12
691.622	8.12
692.366	7.12
693.11	4.12
693.853	9.12
694.597	9.12
695.34	10.12
696.084	6.12
696.827	10.12
697.57	14.12
698.313	9.12
699.057	10.12
699.8	10.12
700.543	14.12
701.285	19.12
702.028	16.12
702.771	15.12
703.514	22.12
704.256	16.12
704.999	13.12
705.741	23.12
706.484	21.12
707.226	30.12
707.968	29.12
708.71	35.12
709.452	42.12
710.194	52.12
710.936	58.12
711.678	69.12
712.42	64.12
713.162	67.12
713.903	70.12
714.645	70.12
715.387	91.12
716.128	174.12
716.869	373.12
717.611	729.12
718.352	1322.12
719.093	2137.12
719.834	3052.12
720.575	3671.12
721.316	4066.12
722.057	3832.12
722.798	2910.12
723.538	1732.12
724.279	958.12
725.02	1038.12
725.76	2076.12
726.501	3803.12
727.241	5626.12
727.981	7169.12
728.721	7768.12
729.462	7461.12
730.202	6307.12
730.942	4882.12
731.682	3394.12
732.421	2042.12
733.161	1075.12
733.901	511.12
734.641	231.12
735.38	175.12
736.12	229.12
736.859	318.12
737.598	385.12
738.338	381.12
739.077	356.12
739.816	288.12
740.555	205.12
741.294	152.12
742.033	97.12
742.772	62.12
743.511	33.12
744.249	20.12
744.988	12.12
745.726	9.12
746.465	6.12
747.203	9.12
747.942	11.12
748.68	2.12
749.418	8.12
750.156	8.12
750.894	7.12
751.632	6.12
752.37	5.12
753.108	1.12
753.846	2.12
754.583	3.12
755.321	3.12
756.059	5.12
756.796	4.12
757.533	2.12
758.271	-0.88
759.008	5.12
759.745	5.12
760.482	0.12
761.219	0.12
761.956	3.12
762.693	6.12
763.43	3.12
764.167	3.12
764.903	-0.88
765.64	4.12
766.377	1.12
767.113	3.12
767.849	1.12
768.586	5.12
769.322	3.12
770.058	4.12
770.794	5.12
771.53	4.12
772.266	2.12
773.002	4.12
773.738	2.12
774.474	4.12
775.209	5.12
775.945	1.12
776.68	5.12
777.416	5.12
778.151	4.12
778.886	2.12
779.622	0.12
780.357	3.12
781.092	3.12
781.827	3.12
782.562	-0.88
783.297	2.12
784.031	2.12
784.766	2.12
785.501	4.12
786.235	2.12
786.97	1.12
787.704	4.12
788.439	3.12
789.173	5.12
789.907	0.12
790.641	4.12
791.375	3.12
792.109	2.12
792.843	0.12
793.577	2.12
794.311	4.12
795.044	4.12
795.778	4.12
796.512	2.12
797.245	5.12
797.978	6.12
798.712	5.12
799.445	2.12
800.178	8.12
800.911	3.12
801.644	1.12
802.377	4.12
803.11	5.12
803.843	3.12
804.576	4.12
805.308	3.12
806.041	5.12
806.774	2.12
807.506	4.12
808.238	3.12
808.971	1.12
809.703	8.12
810.435	5.12
811.167	7.12
811.899	9.12
812.631	6.12
813.363	9.12
814.095	9.12
814.827	4.12
815.558	8.12
816.29	3.12
817.021	6.12
817.753	10.12
818.484	6.12
819.215	11.12
819.947	11.12
820.678	1.12
821.409	7.12
822.14	7.12
822.871	4.12
823.602	12.12
824.332	4.12
825.063	10.12
825.794	10.12
826.524	7.12
827.255	12.12
827.985	7.12
828.716	9.12
829.446	11.12
830.176	8.12
830.906	8.12
831.636	6.12
832.366	9.12
833.096	12.12
833.826	3.12
834.556	10.12
835.285	7.12
836.015	9.12
836.744	6.12
837.474	13.12
838.203	11.12
838.933	6.12
839.662	14.12
840.391	3.12
841.12	9.12
841.849	10.12
842.578	13.12
843.307	13.12
844.036	10.12
844.764	6.12
845.493	9.12
846.222	11.12
846.95	6.12
847.679	8.12
848.407	8.12
849.135	7.12
849.864	10.12
850.592	8.12
851.32	11.12
852.048	13.12
852.776	6.12
853.504	7.12
854.231	12.12
854.959	7.12
855.687	7.12
856.414	5.12
857.142	10.12
857.869	10.12
858.596	5.12
859.324	14.12
860.051	13.12
860.778	7.12
861.505	7.12
862.232	10.12
862.959	7.12
863.686	13.12
864.413	11.12
865.139	12.12
865.866	6.12
866.592	8.12
867.319	13.12
868.045	11.12
868.772	8.12
869.498	4.12
870.224	11.12
870.95	6.12
871.676	8.12
872.402	11.12
873.128	9.12
873.854	12.12
874.579	6.12
875.305	8.12
876.031	9.12
876.756	6.12
877.482	8.12
878.207	15.12
878.932	7.12
879.657	8.12
880.383	9.12
881.108	5.12
881.833	7.12
882.557	13.12
883.282	8.12
884.007	8.12
884.732	6.12
885.456	8.12
886.181	11.12
886.905	10.12
887.63	12.12
888.354	11.12
889.078	6.12
889.803	11.12
890.527	11.12
891.251	9.12
891.975	9.12
892.699	7.12
893.422	8.12
894.146	7.12
894.87	9.12
895.593	11.12
896.317	9.12
897.04	9.12
897.764	14.12
898.487	7.12
899.21	10.12
899.933	10.12
900.656	11.12
901.38	11.12
902.102	11.12
902.825	6.12
903.548	5.12
904.271	9.12
904.993	6.12
905.716	8.12
906.438	11.12
907.161	12.12
907.883	6.12
908.605	14.12
909.328	7.12
910.05	8.12
910.772	10.12
911.494	13.12
912.216	10.12
912.938	10.12
913.659	11.12
914.381	10.12
915.103	10.12
915.824	10.12
916.546	12.12
917.267	11.12
917.988	13.12
918.709	10.12
919.431	9.12
920.152	12.12
920.873	6.12
921.594	5.12
922.315	9.12
923.035	10.12
923.756	12.12
924.477	9.12
925.197	13.12
925.918	12.12
926.638	13.12
927.359	10.12
928.079	8.12
928.799	14.12
929.519	13.12
930.239	12.12
930.959	7.12
931.679	9.12
932.399	8.12
933.119	13.12
933.838	12.12
934.558	10.12
935.277	11.12
935.997	13.12
936.716	12.12
937.436	12.12
938.155	10.12
938.874	8.12
939.593	8.12
940.312	8.12
941.031	12.12
941.75	12.12
942.469	11.12
943.187	13.12
943.906	11.12
944.625	11.12
945.343	11.12
946.062	11.12
946.78	12.12
947.498	9.12
948.216	15.12
948.935	10.12
949.653	12.12
950.371	9.12
951.089	10.12
951.806	11.12
952.524	14.12
953.242	12.12
953.959	12.12
954.677	12.12
955.394	14.12
956.112	11.12
956.829	9.12
957.546	8.12
958.263	11.12
958.981	10.12
959.698	16.12
960.415	13.12
961.131	8.12
961.848	12.12
962.565	7.12
963.282	14.12
963.998	13.12
964.715	12.12
965.431	15.12
966.147	12.12
966.864	10.12
967.58	13.12
968.296	10.12
969.012	7.12
969.728	12.12
970.444	11.12
971.16	10.12
971.876	12.12
972.591	9.12
973.307	7.12
974.022	12.12
974.738	8.12
975.453	5.12
976.169	11.12
976.884	10.12
977.599	12.12
978.314	5.12
979.029	11.12
979.744	-3.88
980.459	-1.88
981.174	0.12
981.888	-2.88
